timestamp,x,y,z
1481274026718895,-0.0859375,-0.050293,1.01563
1481274026742914,-0.0898438,-0.0395508,1.02051
1481274026756909,-0.0898438,-0.0424805,1.00537
1481274026778916,-0.0810547,-0.0424805,1.02539
1481274026801921,-0.0898438,-0.0400391,1.01904
1481274026824920,-0.081543,-0.0292969,1.0127
1481274026838994,-0.0893555,-0.0419922,1.00195
1481274026862434,-0.0991211,-0.0351563,1.02832
1481274026875959,-0.0966797,-0.0366211,1.01904
1481274026898948,-0.0874023,-0.0351563,1.01367
1481274026921949,-0.0893555,-0.0415039,1.02197
1481274026937950,-0.0957031,-0.0361328,1.02393
1481274026958975,-0.09375,-0.0576172,1.01758
1481274026989984,-0.090332,-0.0493164,1.02344
1481274026995982,-0.0830078,-0.0234375,1.03125
1481274027018984,-0.0976563,-0.0517578,1.01904
1481274027041990,-0.0991211,-0.0737305,1.03369
1481274027056492,-0.0947266,-0.0551758,1.02637
1481274027079000,-0.109375,-0.0375977,1.01025
1481274027103076,-0.101074,-0.0366211,1.01563
1481274027125008,-0.0883789,-0.0473633,1.02197
1481274027139065,-0.0888672,-0.0507813,1.01318
1481274027162090,-0.0883789,-0.0561523,1.01709
1481274027176097,-0.0908203,-0.0507813,1.02051
1481274027199095,-0.100098,-0.0532227,1.01025
1481274027221098,-0.106445,-0.0483398,1.01611
1481274027236101,-0.109375,-0.0454102,1.01904
1481274027267173,-0.102539,-0.0498047,1.02441
1481274027281191,-0.100098,-0.0600586,1.01953
1481274027296116,-0.0976563,-0.0639648,1.01563
1481274027319118,-0.0859375,-0.0390625,1.01514
1481274027341190,-0.09375,-0.0375977,1.02979
1481274027356700,-0.0981445,-0.0522461,1.02441
1481274027379023,-0.0986328,-0.0634766,1.01709
1481274027401095,-0.0942383,-0.0478516,1.0293
1481274027434025,-0.123047,-0.0175781,1.05566
1481274027439098,-0.157715,-0.0517578,1.05713
1481274027461535,-0.104492,-0.155762,1.05762
1481274027476924,-0.0268555,-0.114746,1.06006
1481274027498896,-0.0424805,-0.0078125,1.04053
1481274027521917,-0.0917969,0.00830078,1.02783
1481274027544985,-0.111328,-0.0444336,1.01367
1481274027559404,-0.109375,-0.0444336,0.985352
1481274027581530,-0.102051,-0.00830078,0.97168
1481274027604452,-0.120605,-0.00244141,0.976074
1481274027619441,-0.114258,-0.00244141,0.975098
1481274027641442,-0.104492,-0.000976563,0.991699
1481274027659523,-0.0957031,0.00537109,1.00732
1481274027678833,-0.0913086,-0.0175781,1.00195
1481274027710930,-0.0810547,-0.0366211,1.01953
1481274027717833,-0.0893555,-0.0478516,1.021
1481274027738904,-0.0927734,-0.0375977,1.02051
1481274027769949,-0.0810547,-0.0351563,1.02539
1481274027776868,-0.0742188,-0.043457,1.03223
1481274027798872,-0.0791016,-0.0405273,1.02588
1481274027822871,-0.0864258,-0.0356445,1.03906
1481274027844872,-0.0883789,-0.0415039,1.03076
1481274027859381,-0.0771484,-0.0380859,1.02734
1481274027882890,-0.0878906,-0.0493164,1.03076
1481274027904970,-0.0942383,-0.0498047,1.02783
1481274027918890,-0.0908203,-0.0541992,1.01318
1481274027941897,-0.090332,-0.0244141,1.02539
1481274027964983,-0.0893555,-0.0209961,1.02686
1481274027986991,-0.0878906,-0.0219727,1.01123
1481274028000990,-0.0830078,-0.0292969,1.03223
1481274028024991,-0.0864258,-0.0415039,1.02002
1481274028046993,-0.0908203,-0.0493164,1.02734
1481274028061501,-0.0883789,-0.0419922,1.0293
1481274028085013,-0.0834961,-0.0410156,1.02051
1481274028100014,-0.0869141,-0.0361328,1.02295
1481274028121016,-0.101074,-0.0419922,1.01904
1481274028145016,-0.104004,-0.0424805,1.01318
1481274028159024,-0.0957031,-0.0439453,1.02344
1481274028181526,-0.0854492,-0.0395508,1.02393
1481274028213030,-0.0961914,-0.0410156,1.01611
1481274028219031,-0.0981445,-0.0454102,1.01904
1481274028241534,-0.09375,-0.0512695,1.02539
1481274028273038,-0.081543,-0.0546875,1.021
1481274028279038,-0.0859375,-0.0576172,1.02393
1481274028301541,-0.081543,-0.0532227,1.01709
1481274028325544,-0.0834961,-0.0390625,1.0293
1481274028339046,-0.0893555,-0.0410156,1.02588
1481274028361549,-0.0869141,-0.0493164,1.02783
1481274028384052,-0.0888672,-0.0498047,1.01709
1481274028399053,-0.0893555,-0.0454102,1.02002
1481274028421556,-0.0854492,-0.0361328,1.01611
1481274028453061,-0.0825195,-0.0424805,1.01318
1481274028459061,-0.0820313,-0.0419922,1.01172
1481274028490065,-0.0849609,-0.0454102,1.01025
1481274028504067,-0.0800781,-0.0625,1.01074
1481274028519069,-0.0712891,-0.0800781,1.00244
1481274028543072,-0.0766602,-0.0737305,1.00098
1481274028564075,-0.0742188,-0.0742188,1.01318
1481274028579077,-0.0703125,-0.102051,1.02393
1481274028603079,-0.078125,-0.162598,1.01318
1481274028624082,-0.0795898,-0.186523,1.02002
1481274028639084,-0.0795898,-0.179199,1.02295
1481274028662087,-0.0727539,-0.154785,1.01318
1481274028684090,-0.0795898,-0.158203,1.00781
1481274028699091,-0.0839844,-0.200684,0.994141
1481274028721594,-0.074707,-0.236328,0.991211
1481274028744097,-0.0620117,-0.191406,0.99707
1481274028767100,-0.0688477,-0.147949,0.980469
1481274028781602,-0.0859375,-0.25,0.932617
1481274028804105,-0.0849609,-0.385742,0.940918
1481274028827108,-0.0742188,-0.453125,0.961914
1481274028841609,-0.0996094,-0.410645,0.941895
1481274028864113,-0.102539,-0.458984,0.915039
1481274028882115,-0.0820313,-0.528809,0.899902
1481274028901618,-0.0703125,-0.528809,0.889648
1481274028933121,-0.0893555,-0.545898,0.876953
1481274028939122,-0.0844727,-0.606934,0.870605
1481274028961626,-0.059082,-0.588867,0.853027
1481274028992129,-0.0688477,-0.567871,0.839844
1481274029000630,-0.0805664,-0.620117,0.825684
1481274029021633,-0.074707,-0.681641,0.797363
1481274029045636,-0.0732422,-0.677246,0.786133
1481274029060638,-0.0771484,-0.641602,0.777344
1481274029081640,-0.0737305,-0.663574,0.746094
1481274029104143,-0.0756836,-0.697266,0.706055
1481274029120645,-0.0874023,-0.73584,0.699707
1481274029141648,-0.0791016,-0.750977,0.681641
1481274029164151,-0.0766602,-0.722656,0.679688
1481274029186653,-0.0927734,-0.742676,0.652344
1481274029201656,-0.0996094,-0.79541,0.636719
1481274029224160,-0.0844727,-0.827148,0.619141
1481274029246662,-0.0786133,-0.805176,0.612793
1481274029261663,-0.0825195,-0.792969,0.578125
1481274029283672,-0.097168,-0.832031,0.563477
1481274029306673,-0.0976563,-0.852051,0.546875
1481274029321674,-0.0771484,-0.847656,0.537598
1481274029343675,-0.0927734,-0.84375,0.52002
1481274029375690,-0.115234,-0.875977,0.493652
1481274029381767,-0.0996094,-0.883301,0.47168
1481274029403694,-0.0957031,-0.898438,0.435547
1481274029426695,-0.109375,-0.910156,0.426758
1481274029449776,-0.116699,-0.923828,0.400391
1481274029464295,-0.114258,-0.929199,0.361328
1481274029486895,-0.125977,-0.948242,0.361816
1481274029501885,-0.13623,-0.981934,0.358887
1481274029523802,-0.13916,-0.953613,0.341309
1481274029546854,-0.148926,-0.953613,0.317871
1481274029561881,-0.145508,-0.987305,0.302734
1481274029584450,-0.146973,-1.0127,0.293945
1481274029606483,-0.159668,-0.98877,0.271484
1481274029621477,-0.159668,-0.965332,0.237305
1481274029644409,-0.169434,-0.994141,0.224121
1481274029666759,-0.15918,-1.01172,0.231934
1481274029681688,-0.160156,-0.995117,0.22168
1481274029703758,-0.177246,-0.975098,0.196777
1481274029726761,-0.178223,-0.989746,0.175293
1481274029741694,-0.165527,-1.00342,0.180664
1481274029764199,-0.164551,-0.991699,0.174805
1481274029786800,-0.184082,-0.952148,0.141113
1481274029801792,-0.187012,-0.967285,0.125488
1481274029823795,-0.186035,-0.998535,0.135742
1481274029846761,-0.187012,-0.981445,0.128906
1481274029861808,-0.198242,-0.97168,0.120117
1481274029883831,-0.193848,-0.998047,0.115723
1481274029906863,-0.183594,-0.993164,0.104004
1481274029922831,-0.187012,-0.969727,0.0742188
1481274029943904,-0.217285,-0.987305,0.0556641
1481274029966912,-0.214355,-1.03125,0.0512695
1481274029982896,-0.186035,-1.01563,0.0375977
1481274030004970,-0.190918,-0.998047,0.00488281
1481274030026925,-0.20459,-0.998047,0.0107422
1481274030042900,-0.19043,-0.994629,0.00341797
1481274030063984,-0.194824,-0.975098,-0.0249023
1481274030087016,-0.19873,-0.98291,-0.0385742
1481274030103005,-0.195801,-0.994141,-0.0473633
1481274030124077,-0.193359,-0.991211,-0.0556641
1481274030147009,-0.192383,-0.983398,-0.0825195
1481274030163018,-0.19043,-1.02246,-0.09375
1481274030184041,-0.164551,-0.989746,-0.0795898
1481274030207041,-0.213867,-0.921875,-0.0717773
1481274030223041,-0.199219,-0.916992,-0.100586
1481274030244116,-0.196777,-1.03516,-0.102539
1481274030266588,-0.199219,-1.08398,-0.104004
1481274030282592,-0.191895,-0.976074,-0.126465
1481274030303564,-0.206543,-0.924805,-0.128906
1481274030326635,-0.210449,-1.00732,-0.113281
1481274030342567,-0.199219,-1.05176,-0.0961914
1481274030364075,-0.175293,-0.96582,-0.117188
1481274030386130,-0.199707,-0.946777,-0.118652
1481274030403097,-0.21582,-0.993652,-0.103516
1481274030424100,-0.206055,-1.00586,-0.0771484
1481274030447105,-0.179199,-0.981445,-0.0932617
1481274030463181,-0.198242,-0.991211,-0.0917969
1481274030484284,-0.206543,-1.00391,-0.0805664
1481274030506314,-0.209473,-1,-0.0898438
1481274030523218,-0.216309,-1.02979,-0.0703125
1481274030544221,-0.210938,-1.01172,-0.0717773
1481274030566299,-0.219238,-1.00879,-0.0629883
1481274030583318,-0.215332,-0.961426,-0.0556641
1481274030604379,-0.216309,-0.979492,-0.050293
1481274030626322,-0.208008,-1.02588,-0.0527344
1481274030643322,-0.201172,-0.996094,-0.0620117
1481274030664332,-0.208496,-0.983887,-0.0566406
1481274030686838,-0.203125,-0.967285,-0.0488281
1481274030702838,-0.209961,-0.978516,-0.0390625
1481274030723911,-0.208496,-1.00439,-0.0214844
1481274030746842,-0.211914,-0.956543,-0.0375977
1481274030762853,-0.220703,-0.980957,-0.0488281
1481274030784378,-0.191895,-0.978516,-0.034668
1481274030806449,-0.214355,-0.977051,-0.0429688
1481274030823378,-0.195313,-1.02637,-0.0307617
1481274030844383,-0.187012,-1.03271,-0.0327148
1481274030866486,-0.197266,-1.04883,-0.00830078
1481274030889523,-0.202148,-0.993652,0.000488281
1481274030905508,-0.20752,-0.986816,0.00390625
1481274030926595,-0.207031,-1.03711,0.00488281
1481274030949557,-0.206055,-1.03125,0.00488281
1481274030965519,-0.200195,-0.996094,0.0166016
1481274030987027,-0.202637,-0.95166,0.0180664
1481274031009101,-0.20752,-1.01611,0.00195313
1481274031025039,-0.193848,-1.05078,0.0102539
1481274031047031,-0.181152,-0.984863,0.0200195
1481274031063112,-0.203125,-0.938965,0.0205078
1481274031085633,-0.200195,-0.984375,0.0229492
1481274031106705,-0.182129,-1.01611,0.0161133
1481274031128634,-0.202637,-1.02588,0.0253906
1481274031145636,-0.19873,-0.972656,0.043457
1481274031166718,-0.184082,-0.98584,0.0488281
1481274031188810,-0.17627,-1.02197,0.0419922
1481274031205740,-0.175781,-1.09863,0.043457
1481274031226743,-0.166992,-1.12402,0.0634766
1481274031248844,-0.182129,-1.05371,0.102051
1481274031265760,-0.152344,-1.00195,0.154297
1481274031286335,-0.144043,-0.900391,0.208496
1481274031309267,-0.140625,-0.879395,0.27832
1481274031325267,-0.161621,-0.899414,0.313477
1481274031346379,-0.161621,-0.949707,0.348633
1481274031369088,-0.158691,-0.90625,0.399902
1481274031393017,-0.164551,-0.787598,0.424805
1481274031407019,-0.1875,-0.858887,0.456055
1481274031429020,-0.176758,-0.991699,0.470215
1481274031445022,-0.138672,-1.00195,0.516113
1481274031466612,-0.123535,-0.865723,0.536133
1481274031489333,-0.152832,-0.765625,0.572754
1481274031505264,-0.166016,-0.844727,0.589844
1481274031526335,-0.123047,-0.818359,0.621582
1481274031549368,-0.120605,-0.745605,0.654785
1481274031565823,-0.132813,-0.714844,0.694824
1481274031586545,-0.133789,-0.708008,0.73877
1481274031609526,-0.0898438,-0.622559,0.753906
1481274031625470,-0.074707,-0.491211,0.775879
1481274031646473,-0.100098,-0.498535,0.821289
1481274031668707,-0.124023,-0.583496,0.847168
1481274031685635,-0.124512,-0.62207,0.851074
1481274031709639,-0.10498,-0.550293,0.856445
1481274031728641,-0.0825195,-0.412109,0.896484
1481274031745641,-0.101074,-0.379395,0.926758
1481274031766715,-0.106934,-0.413086,0.921875
1481274031789294,-0.0639648,-0.404297,0.941895
1481274031805226,-0.0546875,-0.36377,0.972168
1481274031828225,-0.074707,-0.366211,0.96875
1481274031849269,-0.0712891,-0.321777,0.961426
1481274031871171,-0.0625,-0.282227,0.975586
1481274031888102,-0.0556641,-0.242676,0.982422
1481274031909118,-0.0571289,-0.22168,0.993652
1481274031933106,-0.0776367,-0.243164,0.996094
1481274031949105,-0.0541992,-0.238281,1.00537
1481274031969169,-0.0351563,-0.211426,1
1481274031987168,-0.0424805,-0.118164,0.992676
1481274032008173,-0.050293,-0.0771484,0.990234
1481274032029172,-0.0444336,-0.0786133,1.01416
1481274032045174,-0.0336914,-0.0917969,1.02441
1481274032068251,-0.0483398,-0.109863,1.02002
1481274032088801,-0.0371094,-0.0820313,1.01758
1481274032105764,-0.00439453,-0.0200195,1.02441
1481274032127769,-0.0107422,-0.0268555,1.02148
1481274032151764,-0.0292969,-0.0537109,1.02734
1481274032165774,-0.0126953,-0.0366211,1.02783
1481274032187789,-0.00195313,0.0258789,1.0415
1481274032208786,-0.00585938,0.0874023,1.01563
1481274032225789,-0.0195313,0.0737305,1.01416
1481274032247790,-0.0170898,0.0224609,1.02246
1481274032268895,-0.0151367,0.0419922,1.01123
1481274032284893,-0.0527344,0.0444336,1.0083
1481274032307891,-0.0405273,0.034668,1.02148
1481274032328893,-0.03125,0.00634766,1.01514
1481274032344894,-0.0395508,-0.00195313,1.01123
1481274032375494,-0.0332031,0.00976563,1.03906
1481274032389495,-0.0297852,0.0205078,1.04297
1481274032405495,-0.0463867,0.0263672,1.03906
1481274032427500,-0.0444336,0.0126953,1.04102
1481274032449542,-0.0380859,0.00488281,1.03955
1481274032465566,-0.0371094,0.0341797,1.03467
1481274032489587,-0.0507813,0.0478516,1.0332
1481274032508587,-0.0385742,0.027832,1.03369
1481274032525589,-0.0444336,0.00732422,1.04541
1481274032547594,-0.0356445,0.0131836,1.02539
1481274032568671,-0.0405273,0.0219727,1.01123
1481274032591764,-0.0478516,0.0141602,1.02051
1481274032607696,-0.0307617,0.0283203,1.03125
1481274032628697,-0.0366211,0.0205078,1.03418
1481274032652698,-0.0410156,0.000488281,1.01563
1481274032668208,-0.0371094,0,1.01709
1481274032688951,-0.0356445,0.0307617,1.01465
1481274032704950,-0.0327148,0.0532227,1.01904
1481274032727952,-0.0336914,0.0253906,1.00977
1481274032749026,-0.0356445,0.00927734,1.02148
1481274032779557,-0.0419922,0.019043,1.02881
1481274032787558,-0.0327148,0.0327148,1.01367
1481274032819558,-0.0263672,0.0380859,1.00781
1481274032831630,-0.0234375,0.0410156,1.01074
1481274032847584,-0.0209961,0.0625,1.01611
1481274032877589,-0.0214844,0.0683594,1.01221
1481274032891659,-0.0229492,0.0664063,1.00439
1481274032907596,-0.0253906,0.0776367,0.999023
1481274032930592,-0.0239258,0.0708008,0.996094
1481274032951666,-0.0288086,0.0942383,0.998047
1481274032968101,-0.0234375,0.124023,0.989746
1481274032990120,-0.0161133,0.160156,0.99707
1481274033012109,0.0078125,0.195313,0.996582
1481274033028109,0.000488281,0.185547,1.00684
1481274033050117,0.00488281,0.178711,1.01904
1481274033071716,0.0175781,0.187988,1.00146
1481274033087644,0.00878906,0.193848,0.981445
1481274033110643,0.0146484,0.239746,0.97998
1481274033131713,0.015625,0.285156,0.987305
1481274033148646,0.00927734,0.255371,0.978516
1481274033170684,-0.000976563,0.224609,0.976563
1481274033191756,0.0229492,0.239258,0.972168
1481274033207689,0.034668,0.297363,0.964355
1481274033230691,0.0410156,0.313965,0.951172
1481274033251691,0.0395508,0.330078,0.945313
1481274033274269,0.0297852,0.348145,0.937988
1481274033290204,0.0419922,0.365723,0.936035
1481274033311208,0.0532227,0.375,0.928223
1481274033335321,0.0576172,0.398438,0.921875
1481274033350210,0.0483398,0.432129,0.914063
1481274033371882,0.046875,0.433594,0.901855
1481274033387812,0.0498047,0.436035,0.890137
1481274033410813,0.0654297,0.465332,0.900879
1481274033440817,0.0678711,0.500977,0.883301
1481274033447816,0.0463867,0.514648,0.864258
1481274033470853,0.059082,0.530762,0.856934
1481274033499858,0.0576172,0.551758,0.847168
1481274033507855,0.0449219,0.545898,0.840332
1481274033530859,0.0483398,0.552246,0.844238
1481274033551950,0.059082,0.571289,0.835449
1481274033568366,0.0615234,0.62207,0.821777
1481274033590375,0.065918,0.617188,0.800293
1481274033614376,0.0668945,0.609375,0.802734
1481274033628377,0.078125,0.635254,0.785156
1481274033650378,0.065918,0.669434,0.76709
1481274033671499,0.0766602,0.67041,0.753418
1481274033687471,0.103516,0.682617,0.746582
1481274033709518,0.0908203,0.683594,0.729492
1481274033732493,0.0957031,0.70166,0.72168
1481274033747474,0.108887,0.719727,0.706055
1481274033770099,0.0947266,0.702148,0.692871
1481274033792150,0.0830078,0.73584,0.689453
1481274033815113,0.113281,0.779785,0.689941
1481274033830090,0.118164,0.766113,0.661621
1481274033852161,0.111328,0.77002,0.650879
1481274033868095,0.109375,0.802734,0.611328
1481274033889663,0.102051,0.810059,0.599121
1481274033912621,0.114258,0.809082,0.584961
1481274033934678,0.126953,0.837891,0.566406
1481274033949679,0.124512,0.839355,0.539551
1481274033972634,0.0942383,0.823242,0.533203
1481274033994632,0.115723,0.844238,0.516602
1481274034009632,0.138184,0.87793,0.522461
1481274034032637,0.161621,0.898438,0.531738
1481274034054744,0.163574,0.901367,0.525879
1481274034069746,0.144531,0.861328,0.498535
1481274034091816,0.144531,0.842773,0.490234
1481274034114825,0.168457,0.892578,0.46875
1481274034129839,0.171387,0.922363,0.44873
1481274034152760,0.134766,0.87207,0.424316
1481274034174454,0.130859,0.855957,0.419434
1481274034189457,0.16748,0.879395,0.395508
1481274034212385,0.157227,0.895996,0.38916
1481274034234386,0.152344,0.911621,0.366699
1481274034249439,0.15332,0.909668,0.353027
1481274034272558,0.173828,0.921387,0.341797
1481274034294490,0.17041,0.935547,0.339355
1481274034309573,0.143066,0.981445,0.334961
1481274034332584,0.15625,0.974609,0.358398
1481274034355107,0.152344,0.939453,0.343262
1481274034369571,0.128418,0.899414,0.344727
1481274034392677,0.156738,0.936523,0.331543
1481274034414747,0.172363,0.965332,0.305664
1481274034429748,0.13916,0.956543,0.311523
1481274034451751,0.139648,0.962402,0.305664
1481274034474779,0.146973,0.94873,0.29248
1481274034489824,0.137207,0.936523,0.286133
1481274034511710,0.15332,0.936035,0.264648
1481274034542719,0.144531,0.968262,0.243652
1481274034549711,0.168457,0.990234,0.243164
1481274034571836,0.183594,0.991211,0.234863
1481274034595776,0.151367,0.973633,0.201172
1481274034609770,0.152832,0.976074,0.160156
1481274034631838,0.166504,0.984375,0.174316
1481274034654841,0.182617,0.981445,0.169434
1481274034669851,0.177246,0.96875,0.156738
1481274034691973,0.17627,0.96582,0.157227
1481274034714906,0.197754,0.975586,0.145508
1481274034729980,0.211426,0.998535,0.150879
1481274034751979,0.203125,0.986816,0.143555
1481274034775094,0.185059,0.972656,0.134277
1481274034790087,0.166016,0.97168,0.129395
1481274034820093,0.175781,0.997559,0.108398
1481274034835100,0.17627,1.00537,0.117676
1481274034851029,0.186035,0.994141,0.119629
1481274034872140,0.165527,0.987793,0.105957
1481274034895091,0.162109,0.933105,0.133301
1481274034911072,0.218262,0.984863,0.119141
1481274034932145,0.201172,1.0332,0.127441
1481274034955076,0.20166,1.04102,0.12207
1481274034971152,0.169434,0.974609,0.118652
1481274034992157,0.158691,0.865234,0.181641
1481274035015160,0.174805,0.96875,0.149414
1481274035031157,0.183105,1.05615,0.110352
1481274035052227,0.194336,0.987793,0.140137
1481274035075263,0.147461,0.905273,0.158691
1481274035090264,0.129883,0.920898,0.178223
1481274035112332,0.154297,0.976074,0.163574
1481274035135267,0.166504,0.978516,0.146484
1481274035151265,0.187012,0.967285,0.16748
1481274035172505,0.162109,0.972656,0.19043
1481274035194464,0.152344,0.97168,0.179688
1481274035211464,0.146484,1.00293,0.191406
1481274035232469,0.170898,1.00293,0.188477
1481274035254546,0.15332,1.00098,0.206055
1481274035270975,0.152344,0.96582,0.232422
1481274035292045,0.145508,0.949707,0.254883
1481274035315058,0.127441,0.928223,0.252441
1481274035330985,0.106445,0.938965,0.234375
1481274035352056,0.158691,0.991211,0.243164
1481274035374858,0.151855,1.00537,0.27832
1481274035390775,0.118652,0.905273,0.321777
1481274035411805,0.140137,0.947754,0.31543
1481274035434844,0.15625,1.03906,0.280762
1481274035450784,0.156738,1.02002,0.325684
1481274035471948,0.126953,0.92334,0.382324
1481274035494928,0.0874023,0.873535,0.384277
1481274035510879,0.112793,0.92334,0.387695
1481274035531971,0.140625,0.978027,0.398926
1481274035554956,0.107422,0.932129,0.424316
1481274035570890,0.109863,0.856934,0.466797
1481274035592069,0.0952148,0.862305,0.484375
1481274035615033,0.120605,0.938477,0.505371
1481274035630035,0.103516,0.939941,0.499023
1481274035651967,0.0463867,0.791992,0.530762
1481274035675078,0.0351563,0.734375,0.560547
1481274035690059,0.081543,0.836914,0.556152
1481274035712079,0.0673828,0.866211,0.548828
1481274035735080,0.0625,0.838867,0.57959
1481274035750010,0.0634766,0.812988,0.582031
1481274035773208,0.0751953,0.816895,0.587891
1481274035795119,0.0756836,0.812012,0.608398
1481274035811115,0.0717773,0.820801,0.631836
1481274035833117,0.074707,0.82666,0.648926
1481274035855118,0.0620117,0.746582,0.653809
1481274035870628,0.0375977,0.666992,0.670898
1481274035893636,0.0488281,0.699707,0.702148
1481274035914700,0.0673828,0.781738,0.701172
1481274035930638,0.0458984,0.77002,0.708496
1481274035953639,0.0244141,0.663086,0.744629
1481274035974323,0.0239258,0.583008,0.779297
1481274035997320,0.019043,0.58252,0.783691
1481274036013256,-0.00585938,0.629395,0.784668
1481274036035268,0.00341797,0.666016,0.800781
1481274036057335,0.000976563,0.636719,0.819336
1481274036073361,-0.0166016,0.548828,0.834961
1481274036094361,-0.0439453,0.529297,0.836914
1481274036117433,-0.0356445,0.518555,0.862305
1481274036133362,-0.0351563,0.517578,0.888672
1481274036154434,-0.059082,0.505371,0.90332
1481274036177392,-0.0585938,0.483887,0.890625
1481274036193393,-0.0771484,0.411621,0.906738
1481274036214396,-0.0810547,0.37793,0.91748
1481274036237397,-0.097168,0.380859,0.945801
1481274036261481,-0.0952148,0.365234,0.94873
1481274036275060,-0.0864258,0.33252,0.943848
1481274036297103,-0.0913086,0.302734,0.933594
1481274036313990,-0.0927734,0.270508,0.941895
1481274036335061,-0.0800781,0.257813,0.967773
1481274036357498,-0.0605469,0.260254,0.955078
1481274036372587,-0.0732422,0.275391,0.963379
1481274036394579,-0.0874023,0.267578,0.978516
1481274036424652,-0.100586,0.200195,0.977539
1481274036433581,-0.0795898,0.164063,0.977051
1481274036454583,-0.0883789,0.169434,1.00098
1481274036476785,-0.0922852,0.168945,1.00488
1481274036493785,-0.0859375,0.144531,0.997559
1481274036514855,-0.0864258,0.166016,1.00732
1481274036538788,-0.0927734,0.124023,1.02295
1481274036552791,-0.100586,0.0478516,1.02783
1481274036574376,-0.0688477,0.0224609,1.03369
1481274036597376,-0.0795898,0.0224609,1.01416
1481274036613377,-0.10498,0.0341797,1.00098
1481274036634444,-0.0991211,0.0307617,1.01025
1481274036657457,-0.0927734,0.0205078,0.999512
1481274036672469,-0.101074,-0.00146484,1.01172
1481274036703465,-0.10791,-0.00537109,1.01807
1481274036717539,-0.111328,0.0161133,1.00293
1481274036732515,-0.107422,0.0126953,1.00537
1481274036764064,-0.111816,-0.0249023,0.999512
1481274036777090,-0.125977,-0.0786133,1.00391
1481274036793090,-0.124023,-0.117676,1.00879
1481274036816213,-0.107422,-0.0732422,1.0166
1481274036837163,-0.113281,-0.0327148,1
1481274036853094,-0.103516,0.00927734,1.01514
1481274036876197,-0.0966797,-0.0327148,1.00342
1481274036898262,-0.103516,-0.0908203,1.01367
1481274036913198,-0.0893555,-0.127441,1.02441
1481274036936200,-0.0893555,-0.0639648,1.0293
1481274036957709,-0.110352,-0.00146484,1.03467
1481274036981229,-0.102539,-0.0200195,1.03027
1481274036996230,-0.10498,-0.0834961,1.0293
1481274037018242,-0.108398,-0.0927734,1.0332
1481274037041234,-0.114258,-0.0566406,1.04346
1481274037056233,-0.122559,-0.0375977,1.021
1481274037077292,-0.130859,-0.043457,1.02393
1481274037093295,-0.12207,-0.0688477,1.03711
1481274037116294,-0.129883,-0.0605469,1.02686
1481274037144296,-0.119629,-0.0683594,1.04053
1481274037153296,-0.10791,-0.0859375,1.02783
1481274037177457,-0.107422,-0.0810547,1.02148
1481274037197460,-0.109863,-0.0429688,1.0166
1481274037221459,-0.124512,-0.0571289,1.03223
1481274037236460,-0.101563,-0.0703125,1.01807
1481274037259039,-0.127441,-0.100098,1.03223
1481274037272542,-0.0976563,-0.0854492,1.02197
1481274037295649,-0.104492,-0.0605469,1.01904
1481274037317656,-0.109375,-0.074707,1.01758
1481274037339649,-0.106445,-0.0595703,1.01855
1481274037356655,-0.10791,-0.0551758,1.01953
1481274037377696,-0.114746,-0.120605,1.00879
1481274037392699,-0.0874023,-0.152344,0.998047
1481274037423696,-0.100586,-0.117188,1.01123
1481274037437700,-0.124023,-0.128418,0.988281
1481274037452702,-0.100586,-0.14502,0.991699
1481274037483932,-0.0952148,-0.134277,0.994629
1481274037498936,-0.112793,-0.12207,0.998047
1481274037512933,-0.0981445,-0.125488,1.00391
1481274037535936,-0.110352,-0.124512,1.00586
1481274037556984,-0.106445,-0.11084,0.998535
1481274037580128,-0.106445,-0.107422,1.00293
1481274037595087,-0.106934,-0.0981445,1.00586
1481274037625126,-0.118652,-0.104492,1.00098
1481274037634086,-0.116211,-0.122559,1.01074
1481274037655090,-0.117188,-0.115234,1.02295
1481274037678271,-0.118652,-0.101074,1.0166
1481274037701200,-0.113281,-0.0961914,1.03369
1481274037722272,-0.111816,-0.116211,1.0127
1481274037738311,-0.117676,-0.123535,1.02295
1481274037761261,-0.112793,-0.121582,1.03516
1481274037776299,-0.111328,-0.105469,1.02588
1481274037798304,-0.118652,-0.108398,1.00928
1481274037813304,-0.116699,-0.097168,1.02441
1481274037835303,-0.117188,-0.0961914,1.02148
1481274037858820,-0.112305,-0.10791,1.021
1481274037873326,-0.12793,-0.115234,1.02002
1481274037895693,-0.125488,-0.108398,1.01416
1481274037926696,-0.118164,-0.103516,1.01221
1481274037932698,-0.114258,-0.10791,1.01465
1481274037955698,-0.114746,-0.106934,1.01465
1481274037986740,-0.108887,-0.118164,1.02148
1481274037992746,-0.100586,-0.11377,1.0166
1481274038015742,-0.11084,-0.112305,1.00244
1481274038038743,-0.112793,-0.11377,1.0166
1481274038059810,-0.100098,-0.104004,1.01611
1481274038075846,-0.112305,-0.123535,1.00439
1481274038098847,-0.12207,-0.147461,0.999023
1481274038119918,-0.119629,-0.125488,1.0127
1481274038135852,-0.119629,-0.109375,1.0083
1481274038158846,-0.125,-0.123047,1.00244
1481274038180896,-0.122559,-0.136719,1.01074
1481274038203894,-0.127441,-0.13623,1.00732
1481274038218899,-0.118652,-0.11377,1.00977
1481274038239896,-0.111328,-0.11377,1.01416
1481274038255897,-0.114258,-0.102051,1.01563
1481274038278929,-0.119629,-0.0991211,1.01563
1481274038300003,-0.128906,-0.10791,1.01465
1481274038315931,-0.140625,-0.120117,1.01807
1481274038338933,-0.14502,-0.10791,1.02539
1481274038367447,-0.144531,-0.101563,1.01416
1481274038375452,-0.134766,-0.117676,1.0249
1481274038398453,-0.124023,-0.126465,1.021
1481274038428458,-0.122559,-0.111328,1.01318
1481274038467466,-0.123535,-0.121582,1.03027
1481274038481979,-0.105957,-0.135742,1.01953
1481274038483979,-0.0893555,-0.141113,1.01758
1481274038495020,-0.0913086,-0.12793,1.01855
1481274038517980,-0.0996094,-0.104492,1.01855
1481274038540056,-0.0986328,-0.12793,1.00928
1481274038555079,-0.104004,-0.130371,1.01318
1481274038578018,-0.104492,-0.121582,1.01074
1481274038609020,-0.105957,-0.113281,1.00879
1481274038615090,-0.106934,-0.130371,1.00098
1481274038646025,-0.115723,-0.123535,1.00098
1481274038661536,-0.121582,-0.127441,0.999023
1481274038676083,-0.104004,-0.133789,0.993652
1481274038707088,-0.110352,-0.140137,0.98877
1481274038721088,-0.108398,-0.146484,1.00049
1481274038735131,-0.100098,-0.146973,1.00879
1481274038758090,-0.107422,-0.124023,1.00049
1481274038781143,-0.106934,-0.10791,1.00635
1481274038818145,-0.102539,-0.111328,1.00928
1481274038821149,-0.111816,-0.116211,1.01221
1481274038847217,-0.112793,-0.112305,1.01221
1481274038855154,-0.114746,-0.119141,1.01123
1481274038885207,-0.11377,-0.110352,1.00684
1481274038901203,-0.128418,-0.118164,1.00391
1481274038924202,-0.115234,-0.10791,1.01367
1481274038938207,-0.116699,-0.119629,1.01709
1481274038961218,-0.109863,-0.124023,1.01221
1481274038983286,-0.0991211,-0.130371,1.01855
1481274038998287,-0.104492,-0.12793,1.02148
1481274039021284,-0.11084,-0.128906,1.02637
1481274039035285,-0.108887,-0.129883,1.02881
1481274039058290,-0.110352,-0.128906,1.01807
1481274039088336,-0.115723,-0.137207,1.01221
1481274039102407,-0.11084,-0.133789,1.01514
1481274039118334,-0.107422,-0.114258,1.02051
1481274039148343,-0.109375,-0.121582,1.02393
1481274039162354,-0.114746,-0.133789,1.02051
1481274039178391,-0.114746,-0.138672,1.01855
1481274039201395,-0.121094,-0.12793,1.01221
1481274039222397,-0.121094,-0.118652,1.00684
1481274039238395,-0.112793,-0.118164,1.00732
1481274039262902,-0.10791,-0.125,1.00635
1481274039282528,-0.109863,-0.128906,1.00537
1481274039298439,-0.112305,-0.123535,1.00195
1481274039321442,-0.115234,-0.130371,1.00732
1481274039342443,-0.107422,-0.128418,1.00439
1481274039366450,-0.109863,-0.118652,1.01221
1481274039381483,-0.109863,-0.125977,1.0127
1481274039402599,-0.103027,-0.139648,1.01367
1481274039426486,-0.108398,-0.14502,1.01807
1481274039440485,-0.109863,-0.116211,1.02246
1481274039462502,-0.108398,-0.123047,1.02051
1481274039478708,-0.112305,-0.121582,1.0127
1481274039500711,-0.115234,-0.127441,1.01416
1481274039522712,-0.111328,-0.137207,1.00781
1481274039537716,-0.106934,-0.125488,1.00781
1481274039560727,-0.105469,-0.111816,1.00684
1481274039584748,-0.11084,-0.117676,1.00537
1481274039597750,-0.108887,-0.141113,1.00244
1481274039620749,-0.103027,-0.139648,1.00146
1481274039643752,-0.104004,-0.124512,1.00635
1481274039657755,-0.11084,-0.120605,1.00488
1481274039680782,-0.109375,-0.126953,1.0083
1481274039703783,-0.109375,-0.139648,1.01074
1481274039717785,-0.109863,-0.132813,1.01465
1481274039740789,-0.105957,-0.12793,1.01465
1481274039763803,-0.111328,-0.127441,1.01416
1481274039777941,-0.116211,-0.131836,1.00879
1481274039800942,-0.108398,-0.131348,1.01904
1481274039830945,-0.111816,-0.12793,1.01025
1481274039837947,-0.11084,-0.130371,1.00195
1481274039861454,-0.108887,-0.124023,1.01123
1481274039884023,-0.113281,-0.128906,1.01367
1481274039898024,-0.112793,-0.133301,1.01074
