timestamp,emg1,emg2,emg3,emg4,emg5,emg6,emg7,emg8
1481274026749907,1,0,1,-16,-41,-8,-3,0
1481274026749907,-1,-1,-6,-16,1,4,-1,-3
1481274026750407,0,-2,0,9,51,-5,-2,0
1481274026750407,0,-1,-1,-4,-3,6,1,3
1481274026763908,-1,-3,-2,7,-24,0,0,-1
1481274026763908,-2,-3,1,2,14,-5,1,0
1481274026771917,-3,-2,-3,-2,-22,-3,-2,-4
1481274026771917,-1,-1,-2,0,-5,0,-1,-2
1481274026786917,-1,0,0,-3,38,-1,-3,-2
1481274026786917,1,0,0,4,-7,-1,-1,1
1481274026787918,1,1,-1,-3,-9,-6,-2,-1
1481274026787918,0,-2,0,6,16,4,-1,-1
1481274026802918,-1,-1,-1,-4,-8,2,-2,0
1481274026802918,-1,-2,-1,3,14,4,3,1
1481274026808918,0,0,-1,5,6,-1,-2,1
1481274026808918,-3,-2,0,-5,-9,-4,-1,-2
1481274026824920,1,-3,-1,2,12,-1,2,0
1481274026824920,0,1,1,1,-12,-4,-4,0
1481274026831921,-2,-2,-1,2,22,2,3,-1
1481274026831921,-2,-2,0,0,-7,-3,-4,-2
1481274026846920,-2,0,-2,6,-1,4,1,-1
1481274026846920,-2,0,2,-7,-12,-2,-3,-1
1481274026847921,0,-1,-2,0,-24,0,-1,-1
1481274026847921,-1,0,-1,-4,-9,-3,-3,-1
1481274026862934,0,-3,-1,5,12,-11,-1,0
1481274026862934,-2,-1,-3,-7,-29,1,2,0
1481274026868945,-2,-1,0,-2,-13,0,1,-1
1481274026868945,0,-2,-2,-3,-5,-6,-3,-1
1481274026883947,0,1,-1,6,-13,3,1,-1
1481274026883947,0,2,0,4,3,1,0,-1
1481274026890946,0,-2,-3,-10,-6,-2,-3,-1
1481274026890946,0,-2,-3,-5,0,-15,-2,-2
1481274026906948,0,-2,-2,-6,2,10,6,2
1481274026906948,-1,-1,1,5,-3,1,2,-1
1481274026907948,-1,-1,-1,-7,-16,2,1,-3
1481274026907948,-1,-2,-5,-2,0,0,1,-2
1481274026922948,-3,-2,1,-10,-6,-3,-5,0
1481274026922948,-1,0,0,4,18,-1,-4,0
1481274026936949,0,-1,2,1,7,-1,0,-2
1481274026936949,0,-1,0,1,0,7,2,0
1481274026952473,-2,0,-2,0,8,0,-1,-2
1481274026952473,-2,0,-2,2,5,-3,-2,-1
1481274026952973,-2,0,-2,-15,-14,-2,-3,0
1481274026952973,-1,1,-3,1,16,-9,-3,0
1481274026967061,1,-2,1,10,43,3,1,0
1481274026967061,1,-4,-2,-5,-15,0,0,-2
1481274026967981,0,-3,-1,1,-4,-3,-1,-2
1481274026967981,0,1,0,-1,-1,-1,1,-2
1481274026990981,-1,-1,-2,-8,-31,0,-2,-2
1481274026990981,0,0,-1,-1,18,-5,-6,0
1481274026991982,1,0,0,1,9,3,0,1
1481274026991982,-2,-2,-1,-2,-6,1,-4,-1
1481274027003983,-1,1,0,3,-10,-1,-3,-2
1481274027003983,0,-2,0,-10,-15,2,0,-2
1481274027010984,1,-1,-2,12,13,-5,-4,-2
1481274027010984,0,-2,2,-1,-13,2,2,0
1481274027026983,1,0,0,-4,-9,-5,-1,-1
1481274027026983,-3,-4,-2,0,22,-5,3,-1
1481274027027983,-2,0,0,0,-12,-2,-1,1
1481274027027983,0,-1,-3,-6,-14,-1,-2,0
1481274027042986,0,-1,-1,2,17,-1,-1,0
1481274027042986,0,1,1,5,13,-2,-1,-1
1481274027048985,-3,-3,-2,-5,-39,0,1,0
1481274027048985,-3,-1,-2,1,21,6,1,-1
1481274027063993,-3,-2,0,-1,-8,-2,1,-1
1481274027063993,-3,0,-2,0,-17,-2,-2,-3
1481274027071074,-1,0,-1,1,27,1,-3,-1
1481274027071074,0,1,1,-2,-22,-6,-3,0
1481274027086000,0,0,-3,-6,1,4,5,2
1481274027086000,-1,0,-1,2,13,6,0,-2
1481274027103076,-1,-1,0,-1,-13,-2,3,0
1481274027103076,-2,0,-1,-4,-4,0,-2,-2
1481274027104001,-1,-2,-2,-2,-12,-4,-4,-2
1481274027104001,0,0,-1,4,19,-5,0,1
1481274027109076,0,-1,1,-1,-5,-1,-5,-1
1481274027109076,1,-1,0,0,13,6,3,1
1481274027125008,0,-1,-1,-3,-12,-7,-2,-2
1481274027125008,-1,-1,1,-8,-19,3,2,-1
1481274027131117,-2,2,2,17,36,2,-1,-4
1481274027131117,-3,0,-2,-6,-2,0,2,1
1481274027154589,-1,-1,1,3,-1,1,-1,1
1481274027154589,-1,-2,-1,-5,-3,-1,-5,-1
1481274027155587,-3,-3,-2,0,0,-3,0,-3
1481274027155587,0,1,0,0,-13,-4,-2,-1
1481274027163088,-1,-3,-2,3,-4,12,6,-2
1481274027163088,2,-1,4,-2,10,-1,2,3
1481274027169096,-3,-1,-2,1,20,0,1,1
1481274027169096,-2,-2,0,4,-7,-2,0,-2
1481274027192095,0,-3,-2,-5,-4,0,-6,-2
1481274027192095,-1,-2,-4,2,-2,-4,-1,-2
1481274027193096,0,-3,-1,-7,-12,0,-2,1
1481274027193096,1,0,0,0,-6,3,-1,1
1481274027206098,0,-1,-1,2,31,-5,-3,0
1481274027206098,-1,-1,0,-4,-38,4,2,-2
1481274027214098,2,0,0,6,22,-1,0,0
1481274027214098,1,-1,-2,-3,0,-1,0,-1
1481274027229097,-2,-1,1,2,-7,-6,-1,-1
1481274027229097,-1,1,-5,1,30,4,2,-1
1481274027230097,-1,-2,-1,-11,-22,0,-1,-2
1481274027230097,0,0,1,9,27,-6,-2,0
1481274027244179,0,-2,-4,-17,-12,7,5,0
1481274027244179,-2,-3,0,1,-35,-4,-2,-3
1481274027251605,1,0,-1,-1,24,-5,-7,-2
1481274027251605,-2,0,2,3,7,0,2,0
1481274027268113,0,0,0,2,13,-2,-7,-2
1481274027268113,0,1,-2,-3,-31,-1,-3,-1
1481274027274178,0,-1,-1,4,14,4,0,0
1481274027274178,0,-2,-1,-6,-13,-4,-2,1
1481274027289179,-4,-2,-1,1,-5,-4,-4,-1
1481274027289179,0,0,-2,-4,18,2,-1,-1
1481274027290115,-3,1,-1,6,-22,-5,3,-3
1481274027290115,-1,-2,-1,-3,-3,2,-2,0
1481274027304187,1,2,2,-1,1,-6,2,0
1481274027304187,-1,-2,-2,4,9,2,3,0
1481274027311187,0,0,0,-4,-9,-1,-4,-1
1481274027311187,-2,-2,-3,3,-21,-3,-2,-2
1481274027326166,-1,0,0,-2,1,1,1,1
1481274027326166,-1,-3,2,7,4,-5,-3,-2
1481274027334120,-4,-1,-3,-8,-27,4,2,-1
1481274027334120,0,-1,3,2,14,-1,-2,-1
1481274027349699,0,-1,2,1,-6,-3,-5,-2
1481274027349699,-1,0,-3,0,32,4,1,0
1481274027350698,1,-1,-1,-5,-15,4,1,1
1481274027350698,1,-1,-2,0,9,0,-3,-1
1481274027364202,0,2,0,1,5,-5,-1,1
1481274027364202,1,-2,0,0,-4,-2,-1,-1
1481274027371094,1,1,-3,-2,-7,-1,2,0
1481274027371094,-3,-1,-3,-2,0,-3,0,-1
1481274027387026,-1,-1,-1,-4,16,-1,6,-2
1481274027387026,-2,-1,-2,-7,-22,-2,-2,-1
1481274027394057,1,-1,3,10,-15,-4,1,-1
1481274027394057,-1,-3,-3,-7,-10,1,2,-2
1481274027417098,-1,0,0,-2,-13,-8,-4,0
1481274027417098,1,2,2,4,33,3,-2,2
1481274027433074,-2,-1,-1,-4,-3,-2,-2,0
1481274027433074,0,1,1,6,11,2,1,-1
1481274027435025,-2,-2,-1,-1,-11,-2,-2,-2
1481274027435025,-3,1,1,-1,-8,2,5,-1
1481274027436026,-1,0,-3,-6,-8,-3,2,1
1481274027436026,-2,1,0,1,13,2,2,-2
1481274027446028,-1,-2,-2,1,3,-1,-2,-1
1481274027446028,1,0,0,-2,-14,-4,-1,2
1481274027454034,-1,-2,-2,-3,1,0,-1,2
1481274027454034,-2,-1,0,-4,-17,-2,-2,-2
1481274027469942,-1,0,-2,1,15,3,-1,0
1481274027469942,0,-1,-1,0,-13,3,0,-1
1481274027469942,0,-1,0,-5,18,-9,0,-2
1481274027469942,2,-1,-2,-4,-14,-2,-1,1
1481274027491964,-1,-3,0,4,1,5,2,-2
1481274027491964,-1,-2,0,2,17,-3,-5,-2
1481274027492893,0,-3,-2,-8,-25,-2,-1,0
1481274027492893,-1,-1,-2,3,0,4,0,1
1481274027506898,0,1,1,-1,4,-5,-1,0
1481274027506898,-2,0,-3,-6,-15,0,-1,-1
1481274027513900,-1,-2,0,1,2,0,-2,-2
1481274027513900,2,-1,-3,-5,-1,1,0,1
1481274027529896,2,-1,-1,-4,-10,-1,-4,-1
1481274027529896,-1,0,0,5,-14,-4,-6,-1
1481274027529896,-1,1,0,0,24,10,5,-1
1481274027529896,-2,-1,-1,-1,-15,-2,-6,-4
1481274027544985,1,-1,-3,2,-14,-11,2,0
1481274027544985,2,1,0,2,49,10,3,0
1481274027551402,-2,-4,1,2,-11,-3,-4,1
1481274027551402,-1,-5,-2,-3,1,-1,-2,-1
1481274027566529,0,0,0,-2,-15,-6,-1,-2
1481274027566529,0,0,-1,-3,-3,-8,-3,-1
1481274027574468,1,0,1,1,-7,2,0,0
1481274027574468,0,1,-1,-6,15,1,1,-1
1481274027590439,-3,-3,-3,1,-22,-2,-2,-2
1481274027590439,0,-1,1,1,24,3,-1,-1
1481274027596439,-3,1,-3,-4,5,2,-2,-3
1481274027596439,0,-1,0,-1,-10,-10,-1,-1
1481274027605438,-2,-4,1,4,14,1,-1,0
1481274027605438,-1,0,-2,-2,-11,-1,-1,-1
1481274027611512,-2,1,1,2,21,-2,-2,0
1481274027611512,-1,0,0,4,4,3,0,1
1481274027626542,0,-1,-2,-4,4,4,-1,2
1481274027626542,-1,-5,-1,-7,-4,-7,-3,-2
1481274027634441,0,0,-3,12,29,-1,-3,-1
1481274027634441,-2,0,-1,-13,-20,-6,0,1
1481274027658022,1,0,0,2,21,2,-1,-2
1481274027658022,-2,-3,-2,1,-35,-2,-1,2
1481274027658523,-1,-1,0,-7,-14,-4,0,1
1481274027658523,-1,-2,0,7,13,7,8,0
1481274027664025,-3,0,-1,-3,-8,-1,0,-1
1481274027664025,0,-1,-2,-5,-2,0,1,0
1481274027671831,1,-1,0,0,-6,-8,-2,-1
1481274027671831,-1,-1,1,7,21,9,-1,-1
1481274027686838,-2,-1,-1,-5,-24,-5,1,-1
1481274027686838,-1,0,-3,-6,2,0,1,0
1481274027693902,1,1,-1,13,58,4,2,1
1481274027693902,0,-2,-2,-3,-27,0,-2,-3
1481274027711833,0,-2,-2,-1,-17,-4,-1,-3
1481274027711833,-2,0,1,3,36,2,0,-1
1481274027716903,-2,-2,-3,-10,-31,-1,-1,0
1481274027716903,-2,0,2,4,9,-3,-5,-1
1481274027723904,-1,0,-2,-1,11,13,6,2
1481274027723904,0,-2,-1,-1,-23,-2,2,-2
1481274027731835,-4,-2,-1,-7,-9,-1,-2,-3
1481274027731835,-2,0,0,2,2,-3,0,1
1481274027746833,-2,1,2,-1,-10,-4,-6,0
1481274027746833,-3,-1,-3,-5,-9,-1,-2,2
1481274027754341,-1,-1,1,-2,-19,-4,-2,-3
1481274027754341,0,0,-1,2,8,0,0,0
1481274027770869,1,1,-2,-4,9,-5,-3,-2
1481274027770869,-2,-1,1,4,2,3,3,0
1481274027771869,-1,-2,-1,-5,-41,-2,0,1
1481274027771869,0,-1,-4,4,58,5,-3,-2
1481274027783870,-2,-4,-2,-5,8,2,-2,-1
1481274027783870,0,2,-2,2,-6,-5,-2,-2
1481274027791869,-1,0,0,-5,-10,-3,-3,0
1481274027791869,-1,-2,-1,-4,-13,0,2,0
1481274027806871,-2,-1,-1,1,-10,1,2,0
1481274027806871,-2,-1,-1,0,24,-2,-3,-2
1481274027821870,1,-1,-1,3,7,4,3,0
1481274027821870,-1,-2,0,-3,-26,-2,-1,-2
1481274027829872,1,-1,-1,3,36,1,-1,0
1481274027829872,-1,-1,0,-4,-26,-5,1,0
1481274027829872,-1,1,-2,-2,15,4,0,-1
1481274027829872,0,-1,3,2,-1,-6,-1,1
1481274027844872,0,-2,-1,-11,-7,-1,0,-2
1481274027844872,0,-1,-4,1,4,1,-1,0
1481274027851381,-2,-2,0,-8,-17,-6,-4,-1
1481274027851381,0,2,-1,5,10,1,-2,0
1481274027866891,-4,-1,0,8,4,2,1,0
1481274027866891,1,-2,0,-5,-16,2,9,2
1481274027881965,-1,1,-6,-8,28,-7,-5,-5
1481274027881965,-2,1,-2,-6,28,-1,-2,-2
1481274027889889,-1,-1,0,3,-3,1,0,0
1481274027889889,1,-1,0,0,-2,-2,-6,-2
1481274027889889,-1,-3,2,4,-19,2,-1,0
1481274027889889,0,-1,-2,-7,-24,-5,0,-1
1481274027904970,-1,0,-1,9,73,-1,-4,-2
1481274027904970,-2,1,-1,-3,-3,1,-4,-2
1481274027910889,-1,-1,1,1,-1,4,0,0
1481274027910889,-1,-1,-3,-1,-5,-9,-1,-2
1481274027934971,0,0,-1,-9,-69,1,-2,0
1481274027934971,-1,-1,2,14,43,1,0,-1
1481274027934971,-1,0,-1,-2,-14,-2,1,-1
1481274027934971,1,-2,-2,-1,6,7,5,-1
1481274027949984,1,-2,1,-1,-19,-4,0,0
1481274027949984,0,-1,-4,-12,-13,-8,0,-1
1481274027950482,-2,-2,-2,4,-1,4,-1,-2
1481274027950482,1,-1,3,-5,-13,0,-2,1
1481274027964983,-2,1,0,1,6,0,0,-1
1481274027964983,0,-1,-1,-3,-6,4,0,1
1481274027970988,2,-2,-1,2,9,-5,-2,0
1481274027970988,-1,-2,0,-3,-24,0,1,-1
1481274027987990,0,-1,1,-1,3,-2,0,0
1481274027987990,-1,0,1,0,-57,-4,-1,-1
1481274027993990,-2,0,0,4,67,2,3,0
1481274027993990,-1,-3,0,-3,-9,0,-7,-1
1481274028008991,0,2,-2,2,-1,-4,-4,-1
1481274028008991,-1,0,0,-6,-16,-1,-1,0
1481274028015991,1,-1,-1,4,-18,-3,-1,0
1481274028015991,-1,-2,0,0,0,2,-2,0
1481274028024991,-2,-1,-2,-4,5,-12,-3,-2
1481274028024991,-2,-2,-2,-5,-30,-2,-7,-4
1481274028030992,1,0,0,8,49,9,4,2
1481274028030992,-1,0,1,4,-9,-6,1,-1
1481274028047993,-3,-3,-1,-7,-22,0,-2,-1
1481274028047993,-1,-2,-3,-1,12,0,-3,-2
1481274028054001,-1,-2,0,-8,-29,-2,-7,-2
1481274028054001,1,1,0,1,-14,-1,-6,-2
1481274028069012,-1,1,0,0,21,1,3,-1
1481274028069012,-1,0,1,5,7,0,1,0
1481274028076012,-3,-2,-2,-6,-14,-3,-2,-1
1481274028076012,-2,-2,-1,-2,-4,1,-1,1
1481274028085013,0,-1,0,5,13,4,2,0
1481274028085013,-1,-1,-1,-1,24,-4,-4,-1
1481274028100014,-1,0,-2,3,-14,0,0,0
1481274028100014,-2,-2,-1,-6,-13,-2,0,-2
1481274028106015,1,0,-1,-6,-25,-2,3,-1
1481274028106015,-1,-1,-1,2,11,3,-1,-1
1481274028114015,0,-1,1,5,6,1,1,0
1481274028114015,-2,-1,-3,-6,1,-4,0,0
1481274028129016,0,-1,0,3,11,0,-1,2
1481274028129016,-1,-1,3,5,-7,2,1,1
1481274028136016,1,0,-2,-5,-30,-7,-1,-2
1481274028136016,0,0,-4,-6,-1,-3,-1,-1
1481274028145016,-1,-2,-2,0,-9,-1,0,0
1481274028145016,-2,-2,-1,1,2,-2,1,0
1481274028151523,-4,-1,1,-4,-10,-3,-2,-1
1481274028151523,2,1,-3,2,9,3,1,1
1481274028166524,-1,-1,-3,0,-9,-2,-5,-2
1481274028166524,-1,0,0,0,2,-1,-3,-2
1481274028174025,-2,0,1,3,2,-3,-1,-1
1481274028174025,-1,0,-1,3,-33,-5,1,-2
1481274028189027,-2,-1,-1,-11,-3,5,0,0
1481274028189027,-1,-2,0,3,37,-1,-2,0
1481274028196528,-2,-1,0,-2,-26,-5,-2,0
1481274028196528,-2,-1,1,1,15,4,-1,-1
1481274028213530,1,0,-1,0,8,-2,-2,1
1481274028213530,-2,-1,-3,-2,-16,-4,2,-1
1481274028214530,-1,-2,-1,-4,-3,2,-1,-2
1481274028214530,-1,0,0,-2,-14,1,4,2
1481274028226532,-1,-1,0,3,-9,-6,0,-1
1481274028226532,-1,-2,-2,3,3,8,-2,-2
1481274028234033,1,-2,0,-3,-4,-7,-4,0
1481274028234033,0,-2,-1,1,13,1,2,2
1481274028249536,-1,-2,-2,-1,0,5,1,-1
1481274028249536,-1,0,0,4,-2,0,2,-1
1481274028265538,1,0,-1,-1,-14,0,2,0
1481274028265538,-2,0,-1,-8,15,1,-2,-3
1481274028273538,-4,-1,0,-2,-12,-8,1,-1
1481274028273538,0,0,-4,-4,-2,2,-1,0
1481274028274538,-1,-4,0,0,-17,-2,-3,-1
1481274028274538,1,-2,1,-5,8,-4,-5,-2
1481274028286539,-1,-1,1,6,7,2,-1,0
1481274028286539,0,0,-2,-3,-3,-2,-1,1
1481274028294040,-1,-1,1,1,6,3,-1,0
1481274028294040,0,-2,0,3,1,-4,1,0
1481274028309042,1,-2,-1,-6,1,4,-3,-4
1481274028309042,-1,-1,0,-2,6,-7,1,0
1481274028324545,0,2,-1,-6,4,2,0,-1
1481274028324545,-3,0,-1,7,9,0,-1,-3
1481274028332045,0,0,-1,0,8,1,1,0
1481274028332045,-1,-2,-1,-2,-20,-2,1,-1
1481274028333045,0,1,-4,5,13,3,5,-2
1481274028333045,-3,-3,-2,-10,-21,-3,-1,1
1481274028346547,0,0,0,8,42,2,-3,0
1481274028346547,-1,-2,-2,3,6,4,8,2
1481274028354048,-1,-1,0,-8,-21,-11,0,-2
1481274028354048,0,0,-2,8,16,5,1,0
1481274028377050,-1,-2,-1,-1,-16,-1,-3,1
1481274028377050,1,-1,-1,-12,-17,0,0,0
1481274028378051,0,-1,-1,8,54,7,1,1
1481274028378051,-1,-2,0,0,10,7,10,2
1481274028392554,0,0,-1,-6,-25,-8,0,-1
1481274028392554,-4,0,0,-3,8,1,-4,-2
1481274028393052,-1,-4,-2,1,-10,2,0,0
1481274028393052,0,-2,-1,-8,-17,-7,-13,-2
1481274028406555,-1,-2,1,7,36,6,2,0
1481274028406555,0,-3,0,-4,-11,-3,2,-1
1481274028414086,0,0,-1,1,2,-1,-4,-1
1481274028414086,-2,2,0,5,10,-9,-2,-4
1481274028437059,1,-3,-1,-4,-27,3,-4,-2
1481274028437059,0,-2,-3,-5,19,-6,2,1
1481274028438058,1,0,1,0,-8,-3,-2,1
1481274028438058,0,-3,-1,-1,7,5,-1,0
1481274028453560,-2,0,0,0,-13,-6,-1,-1
1481274028453560,-2,0,1,5,-1,3,-1,0
1481274028454561,-2,0,-1,-5,-8,2,-1,0
1481274028454561,-1,0,-1,1,-23,-1,16,4
1481274028466562,0,2,-3,-4,6,0,-10,-2
1481274028466562,1,0,-2,2,-8,-1,-6,-4
1481274028474063,-2,0,-2,-7,-26,-13,-4,4
1481274028474063,-1,-3,-4,-4,42,12,0,-4
1481274028490566,-1,-1,-1,-4,-26,-10,-8,-1
1481274028490566,1,0,1,4,9,-5,9,5
1481274028496566,-3,-2,-2,-4,-14,4,1,-3
1481274028496566,0,1,0,0,8,-7,-14,-1
1481274028512568,-1,-2,-2,5,9,1,2,-1
1481274028512568,0,0,-1,0,-4,-4,-5,-1
1481274028513068,-3,-3,0,-3,-15,1,-7,-5
1481274028513068,-2,-1,-1,1,9,1,-9,-4
1481274028526570,-2,-2,-4,-4,12,2,-4,-4
1481274028526570,-1,-2,1,-4,-9,-3,-9,-1
1481274028542072,1,1,-2,0,21,3,3,0
1481274028542072,-1,0,1,1,-13,-1,1,2
1481274028549073,1,-2,-1,-9,-7,-4,5,2
1481274028549073,-1,-1,1,9,14,4,-1,-3
1481274028556574,1,-3,-3,-4,-20,-5,-2,0
1481274028556574,-2,-1,0,4,0,4,-5,0
1481274028572075,-2,1,0,1,-10,0,0,-1
1481274028572075,2,0,-2,-8,7,-7,5,3
1481274028573075,0,-1,1,3,-7,-3,-1,0
1481274028573075,2,1,0,-2,-9,6,2,-1
1481274028586578,-2,-1,-1,4,7,2,6,1
1481274028586578,-3,-3,-4,-3,-2,7,-2,-2
1481274028602080,-1,0,-1,-2,-8,-6,3,1
1481274028602080,1,0,0,3,-10,-8,0,-3
1481274028609080,0,0,-2,-3,25,11,9,3
1481274028609080,-3,-2,-3,-7,-27,3,1,-3
1481274028616582,-2,-2,-2,-1,5,-2,-3,-2
1481274028616582,0,-1,0,2,-14,-4,-2,0
1481274028632583,0,-1,0,-10,-22,-2,-2,0
1481274028632583,2,0,-2,9,25,-5,2,1
1481274028633083,-1,1,2,-2,11,0,1,-3
1481274028633083,-2,0,1,0,-9,-13,-21,-3
1481274028654586,2,0,-3,5,21,3,11,6
1481274028654586,-1,0,-2,-9,-17,-9,-5,0
1481274028655587,1,0,-1,-1,9,-1,-7,0
1481274028655587,0,-2,-1,-1,9,-4,2,1
1481274028669088,-2,-2,1,4,2,0,-10,-3
1481274028669088,-2,-2,0,0,-7,1,4,-2
1481274028676588,1,-1,-2,1,-6,3,20,7
1481274028676588,0,0,-2,-2,14,-1,3,-1
1481274028692091,-2,-2,0,-1,-18,-3,-7,0
1481274028692091,-1,-2,-1,8,14,-6,-9,-4
1481274028693091,-2,-1,0,-6,6,2,-2,-2
1481274028693091,1,-1,-1,-5,-5,6,7,0
1481274028706592,-2,0,-2,-4,-4,-1,0,-3
1481274028706592,-2,2,3,6,8,2,-6,-3
1481274028714094,-3,-3,-2,-5,-5,4,-2,-2
1481274028714094,-3,-1,-3,-2,-4,-1,4,3
1481274028729096,0,1,2,6,7,-7,-4,-2
1481274028729096,-1,-2,-2,-5,-22,4,-2,-2
1481274028736596,1,-2,1,5,25,-5,-3,-2
1481274028736596,0,2,0,3,-7,-1,7,-2
1481274028752098,-2,-1,-1,1,-8,-1,-4,-1
1481274028752098,-1,-1,-2,-4,-2,-1,-2,2
1481274028753098,0,0,-2,-8,-22,8,7,2
1481274028753098,0,-2,-3,-6,2,-3,-1,-3
1481274028768100,2,0,-1,-3,-15,-7,-4,-4
1481274028768100,-2,-2,-2,0,-5,17,3,0
1481274028774102,-1,-1,-2,-4,0,4,-4,0
1481274028774102,-2,-3,-3,0,-25,-6,9,4
1481274028789103,-4,-1,0,-1,9,9,8,3
1481274028789103,-2,0,0,-5,-11,-1,-4,-3
1481274028796604,-3,0,0,2,4,-5,-3,0
1481274028796604,-2,-2,-2,-2,1,3,1,1
1481274028812106,1,0,0,-4,-6,0,-2,2
1481274028812106,0,1,3,9,50,-9,-25,-7
1481274028813106,-3,1,1,-2,-3,-21,3,1
1481274028813106,0,0,-1,-1,8,8,1,-2
1481274028828108,-1,-2,-5,-3,-9,-4,-1,-2
1481274028828108,1,-1,-2,-5,-12,-6,-8,0
1481274028834109,-4,-1,-1,5,8,4,-7,-4
1481274028834109,-3,-1,-2,-5,-20,-11,1,-1
1481274028849111,-4,-1,-2,9,44,5,4,-2
1481274028849111,1,0,1,-6,-18,6,9,2
1481274028856611,-1,-1,0,3,2,-1,-6,-3
1481274028856611,-1,-1,-2,-3,1,10,-16,-4
1481274028880616,-2,-1,-2,-4,5,-4,0,-4
1481274028880616,-1,-2,-2,-2,-1,-3,4,1
1481274028881115,2,-1,-5,-9,-42,-2,7,3
1481274028881115,-1,-1,0,7,43,3,-9,-2
1481274028886616,0,-2,3,8,-14,-2,8,2
1481274028886616,-4,-2,-3,-3,3,10,3,-2
1481274028894117,-1,-1,0,-8,-20,-9,-5,-2
1481274028894117,2,0,-2,9,63,1,3,3
1481274028909119,-2,0,1,-5,-20,-2,-7,-2
1481274028909119,2,-1,0,5,0,4,4,-2
1481274028916619,2,-1,-1,4,13,-7,3,0
1481274028916619,-2,-2,-1,-4,-17,-2,-3,-2
1481274028933622,-2,-1,1,0,-3,0,2,1
1481274028933622,-2,0,0,-4,-1,-4,8,4
1481274028934621,0,-1,-3,-5,-10,6,-11,-6
1481274028934621,1,1,2,-5,5,-2,-2,-3
1481274028946622,0,-2,-1,1,0,-6,-2,-1
1481274028946622,-1,-2,-2,0,-8,-6,-1,0
1481274028954125,-2,-2,-2,4,9,4,-2,-2
1481274028954125,-2,-4,-3,-2,-19,-2,0,-1
1481274028969126,-2,-1,-4,-5,8,4,-4,0
1481274028969126,-1,1,2,3,6,-2,0,-1
1481274028976627,0,-1,0,-6,0,-2,3,2
1481274028976627,0,-2,-1,-4,0,0,5,0
1481274028993129,0,0,-1,-3,-26,2,-3,0
1481274028993129,-1,1,0,7,-5,-8,15,6
1481274028999630,0,0,-2,1,31,4,0,-2
1481274028999630,-1,-1,0,-1,-28,6,3,-3
1481274029006631,3,-1,-2,-8,-16,-6,7,2
1481274029006631,-2,-2,0,-5,-29,-6,-17,0
1481274029014132,3,2,-1,7,33,-13,-7,2
1481274029014132,-2,0,0,2,-1,-2,0,-1
1481274029029133,0,-1,-4,-5,8,12,3,-3
1481274029029133,-2,1,-1,0,-9,-6,-7,-5
1481274029044635,-4,0,-1,-7,-6,7,4,0
1481274029044635,0,-3,0,7,25,-2,-4,0
1481274029051637,-1,-1,-2,-5,-6,-3,-1,0
1481274029051637,0,0,-2,-4,3,-7,-3,-1
1481274029059637,-1,-1,2,5,5,7,-4,-2
1481274029059637,-1,-1,-1,-2,-3,3,-1,-2
1481274029066639,-3,-2,-1,0,-6,0,0,-3
1481274029066639,1,0,-1,-1,18,-2,9,2
1481274029074139,-2,-1,-2,1,-9,3,4,-3
1481274029074139,-1,1,1,-1,-6,-7,-2,1
1481274029097143,1,-1,0,-2,-13,-2,-7,-2
1481274029097143,1,0,3,0,-6,5,0,0
1481274029098142,0,-3,-2,5,18,-6,-3,0
1481274029098142,-3,-2,-2,-4,-19,-1,-3,-2
1481274029111644,-4,-1,0,2,16,8,-6,-3
1481274029111644,-1,-2,-2,-6,-7,2,1,1
1481274029119645,-2,-2,3,5,9,5,-7,-4
1481274029119645,1,-1,-1,0,-7,-5,-5,-1
1481274029134647,-1,-1,-1,-9,9,-6,-7,-2
1481274029134647,-2,-1,-2,-3,-49,-2,-2,-2
1481274029135647,-2,-2,-2,-7,-10,5,1,-2
1481274029135647,1,0,-2,5,22,1,3,0
1481274029149149,0,-2,3,2,-11,-9,2,1
1481274029149149,-1,-2,-1,2,6,-1,0,-3
1481274029156650,-1,-1,-2,-5,-16,-3,-16,-5
1481274029156650,-1,0,0,-1,-29,-9,-2,-1
1481274029171652,-1,0,-2,3,3,-7,-10,0
1481274029171652,1,-1,-3,-3,7,4,10,1
1481274029179153,0,1,-1,7,-14,8,0,-3
1481274029179153,-3,1,-3,-12,10,-8,-1,0
1481274029194654,-1,-2,1,-4,-11,-6,-7,-3
1481274029194654,0,-4,0,3,4,0,14,4
1481274029195655,-2,-1,0,3,7,6,5,1
1481274029195655,-1,0,-1,0,-13,0,5,0
1481274029209156,-2,-1,-2,1,-4,-4,0,-1
1481274029209156,-3,-1,-1,-4,17,2,-11,-3
1481274029216659,0,0,-1,-9,-22,-3,9,2
1481274029216659,4,0,-1,9,57,-4,12,6
1481274029231659,-2,0,1,1,-16,8,2,1
1481274029231659,0,0,-1,0,-33,-10,5,0
1481274029239160,-1,0,2,6,47,-1,2,1
1481274029239160,-2,-2,-2,-4,-35,0,-9,-5
1481274029254662,2,0,-1,0,20,-3,0,2
1481274029254662,0,-2,-1,1,24,9,-10,-2
1481274029255662,-1,-3,-4,-11,-30,6,4,-4
1481274029255662,-1,-1,1,-4,-29,-9,10,5
1481274029268672,0,1,0,4,13,1,5,-1
1481274029268672,-2,-1,0,-2,-10,-1,-4,-1
1481274029276681,-1,0,-1,3,5,2,3,-5
1481274029276681,-1,-1,-1,0,-7,-2,-15,-8
1481274029291681,-1,0,-1,3,2,-3,-1,-2
1481274029291681,2,1,-2,-4,0,-7,-6,0
1481274029298672,-2,-2,-1,4,17,-2,-2,-1
1481274029298672,-2,-1,0,2,7,4,3,-1
1481274029314673,-1,-3,0,-4,-25,5,4,-2
1481274029314673,0,0,-2,-3,9,2,-1,-2
1481274029316675,1,-3,0,2,-10,-2,-8,1
1481274029316675,1,-1,-2,-3,-8,-8,-3,-2
1481274029328674,-2,-3,-2,-2,24,4,0,0
1481274029328674,-1,-2,-1,3,-22,-2,4,0
1481274029336676,2,-1,0,-3,15,7,2,1
1481274029336676,-1,-1,1,2,4,-19,-13,-4
1481274029351682,0,-1,-2,0,-2,1,8,1
1481274029351682,-4,0,-3,-6,4,4,2,-11
1481274029359183,-3,0,-1,1,-14,-10,-8,5
1481274029359183,1,-2,-2,-6,25,7,3,0
1481274029375690,-2,0,-1,3,3,-2,2,1
1481274029375690,-1,0,-1,-2,13,4,-9,-2
1481274029376691,-2,1,-3,-2,9,-2,13,0
1481274029376691,-2,-2,0,-5,-17,5,-2,2
1481274029388693,0,-1,-3,2,-4,-1,-2,0
1481274029388693,-2,0,0,0,37,-2,-5,-2
1481274029396692,0,-1,2,-2,-12,-3,-5,0
1481274029396692,0,-1,1,4,12,27,1,3
1481274029411694,3,3,3,0,-17,-42,-7,-4
1481274029411694,-3,-4,-2,2,10,4,-3,-8
1481274029418695,-4,-2,-3,-2,-9,-4,-2,6
1481274029418695,-2,0,-2,-6,1,1,-6,-3
1481274029434776,0,0,-2,0,6,11,-3,3
1481274029434776,-1,-2,-3,-2,-24,-1,7,4
1481274029435695,-1,-1,-1,-2,-9,-13,-5,-16
1481274029435695,-1,-1,-3,-3,-21,-1,2,6
1481274029450792,-2,-2,3,2,7,-3,1,-7
1481274029450792,-1,-3,-2,0,-22,-6,-17,2
1481274029456292,1,-1,0,-3,31,10,9,0
1481274029456292,1,-1,-3,-1,-1,-1,7,0
1481274029471818,1,-2,-1,-10,-32,-13,-7,1
1481274029471818,2,1,1,6,46,2,4,6
1481274029478800,-3,-2,-1,0,4,3,-28,-4
1481274029478800,0,0,1,3,-14,-20,4,-2
1481274029494803,-3,0,-4,-1,23,20,3,1
1481274029494803,-1,0,2,0,7,-4,3,-2
1481274029495800,0,0,-3,-8,-8,1,3,-1
1481274029495800,-4,-2,1,4,-15,-30,-7,-2
1481274029508872,0,-3,-1,-1,3,4,3,-1
1481274029508872,-1,-2,-2,-6,-2,-2,-14,-1
1481274029516835,1,0,0,4,-6,4,8,3
1481274029516835,-3,-1,1,9,40,6,-13,-6
1481274029531803,1,1,-1,-20,-26,3,5,2
1481274029531803,-2,0,1,7,-1,-8,2,-2
1481274029538803,-1,1,0,-4,-27,-6,-6,0
1481274029538803,-1,-2,-1,2,4,18,11,5
1481274029554881,-2,-2,-1,-2,3,-9,-12,-6
1481274029554881,2,-3,-5,-9,-18,0,11,5
1481274029555381,0,1,0,3,15,-6,-5,-2
1481274029555381,-1,2,-2,-7,-24,5,13,-2
1481274029569452,0,-2,-2,6,-1,6,5,-1
1481274029569452,0,-1,2,-6,-7,-4,-2,-1
1481274029576514,-1,-2,-4,-9,-31,1,7,2
1481274029576514,0,0,2,10,33,-6,-2,1
1481274029591476,-4,-1,-4,-12,31,-4,-20,-26
1481274029591476,0,0,3,18,42,1,14,22
1481274029599456,-3,-3,-2,-15,-30,-5,-3,-3
1481274029599456,-2,-2,-1,-2,-41,9,-1,0
1481274029614475,-3,0,2,4,12,-4,4,1
1481274029614475,-2,-2,-4,-3,-4,15,-8,-7
1481274029615407,0,2,1,8,28,-23,-18,-2
1481274029615407,0,-2,-4,-19,-26,3,18,3
1481274029629407,-1,1,-2,12,30,9,-4,9
1481274029629407,-1,1,4,-6,-12,-36,-13,-11
1481274029636477,0,-2,-1,7,-8,7,10,4
1481274029636477,-1,-2,-4,-10,-26,-1,-13,-10
1481274029651987,1,-2,-2,3,19,-3,8,10
1481274029651987,-3,0,0,-6,-10,13,7,1
1481274029659488,-2,1,-2,3,15,0,24,0
1481274029659488,-1,1,2,-4,-4,-15,-8,-1
1481274029674760,0,0,-1,6,10,17,19,4
1481274029674760,-1,1,-2,0,18,8,-9,-10
1481274029675687,5,1,-3,-5,-19,-4,8,2
1481274029675687,-5,-5,0,7,19,8,-6,-2
1481274029688757,-3,-4,-1,-5,-60,-5,1,-1
1481274029688757,1,0,-1,2,54,27,5,1
1481274029696743,-1,-2,1,-2,-12,-16,2,-1
1481274029696743,0,2,2,1,10,-17,-6,-20
1481274029711690,0,-1,0,-2,-23,3,-2,11
1481274029711690,-2,-1,-1,-2,1,-1,-15,6
1481274029718693,-1,3,0,1,3,-3,-3,-2
1481274029718693,-1,-1,-7,-9,-12,18,7,4
1481274029734709,-3,-2,-1,2,9,-12,-17,-13
1481274029734709,0,-1,-1,0,-24,-11,-14,-6
1481274029735690,0,-1,0,6,1,11,-17,1
1481274029735690,-1,-2,-1,-3,5,0,9,6
1481274029748692,3,1,0,0,-6,0,-2,-2
1481274029748692,0,0,-3,-4,-17,-6,-6,-2
1481274029756698,-2,-3,1,-3,-7,1,-14,-10
1481274029756698,6,-1,-3,1,3,-1,8,1
1481274029771837,-6,2,0,1,-7,8,11,3
1481274029771837,-1,-1,-1,-9,1,-5,-7,-10
1481274029778721,0,0,-1,12,23,1,15,8
1481274029778721,0,-1,0,-5,-19,25,-3,1
1481274029794726,-1,0,-1,-4,16,-41,0,0
1481274029794726,1,3,1,0,-26,-5,18,-2
1481274029795722,-2,-4,-4,0,-13,11,2,-1
1481274029795722,0,0,0,0,16,1,-12,-2
1481274029808794,0,-1,1,1,-16,4,18,5
1481274029808794,-4,-4,-3,-1,-9,6,7,-15
1481274029816809,-2,1,-1,-4,32,-10,-2,5
1481274029816809,0,-1,-2,-4,-20,-3,7,0
1481274029831728,2,-3,0,5,29,13,-3,1
1481274029831728,0,-2,-3,-15,-35,-21,6,1
1481274029838726,1,1,0,1,9,7,-11,1
1481274029838726,-6,-3,-3,6,13,1,-33,-7
1481274029854807,-1,-3,-2,0,4,5,6,-4
1481274029854807,0,1,1,1,-7,0,4,6
1481274029855807,-3,-2,-4,-5,-2,41,-4,-8
1481274029855807,0,0,0,-1,14,-27,-24,4
1481274029868899,1,1,0,-6,-20,1,24,6
1481274029868899,-2,-2,-1,6,11,1,-5,-1
1481274029876864,2,5,2,1,-12,-10,2,0
1481274029876864,-6,1,2,9,-5,-3,4,2
1481274029891859,0,-4,-4,-16,-4,5,-19,-6
1481274029891859,1,-2,-2,8,32,8,19,7
1481274029898928,-2,-3,-1,-1,6,-13,4,-1
1481274029898928,-2,2,-1,2,-33,-1,12,2
1481274029913929,0,1,1,-1,-19,-13,-9,4
1481274029913929,-4,-3,-2,0,13,7,-27,-5
1481274029921924,1,2,2,5,12,-3,-12,6
1481274029921924,3,0,4,-1,15,-38,7,-1
1481274029928831,-4,-5,-4,0,-3,20,-17,-3
1481274029928831,4,4,-1,0,-18,-5,24,4
1481274029936850,0,-3,-3,-1,-7,1,1,-4
1481274029936850,-1,-2,-2,-4,0,1,5,1
1481274029951859,-1,0,-1,-2,48,24,-5,-8
1481274029951859,-1,4,3,5,-39,-34,-32,3
1481274029959342,5,5,0,-4,-4,-8,-18,-9
1481274029959342,-4,-10,1,2,-17,0,22,1
1481274029973976,1,-1,-3,2,24,3,0,2
1481274029973976,-1,0,0,-3,-8,19,4,-2
1481274029981967,1,1,0,0,-1,-13,12,12
1481274029981967,0,-2,-3,-2,0,3,-13,-8
1481274029988968,-3,-2,0,-1,-32,-14,-19,-5
1481274029988968,0,-3,-2,-2,-3,-1,12,5
1481274030004970,-6,-5,-5,-14,-16,-7,12,-16
1481274030004970,4,3,-3,3,25,54,30,21
1481274030011901,1,3,0,-2,-11,-49,9,-6
1481274030011901,-2,-4,-3,-3,3,6,-24,-4
1481274030018996,-2,-1,-3,2,14,1,3,-9
1481274030018996,-1,1,2,-2,-13,-15,3,0
1481274030034008,-2,-2,-2,-2,8,0,-14,-3
1481274030034008,0,-3,-2,2,4,8,33,5
1481274030041969,4,3,1,0,-8,-9,-16,-6
1481274030041969,-7,-11,-2,-2,6,2,1,-3
1481274030057482,1,5,4,4,-4,-31,-8,-1
1481274030057482,-2,0,-2,-2,3,10,-21,-10
1481274030057981,-2,-3,-2,0,2,13,15,8
1481274030057981,3,-3,-3,-1,16,3,-1,-4
1481274030072009,-4,-8,-2,0,-23,11,-20,2
1481274030072009,0,-1,0,-3,-22,-30,25,-4
1481274030079004,-11,-4,0,0,-4,11,-10,-22
1481274030079004,3,3,-3,-4,20,1,-34,1
1481274030094076,-4,-7,-2,-1,4,10,3,1
1481274030094076,1,-1,-1,1,15,3,-5,3
1481274030102006,0,-2,-1,-1,-20,-11,-2,6
1481274030102006,4,8,3,-2,-22,-7,0,-6
1481274030118007,-2,-1,-2,-1,18,9,-3,-3
1481274030118007,0,12,-2,0,15,10,5,1
1481274030118007,-5,-18,-2,-4,-33,-17,-15,6
1481274030118007,-4,4,1,-5,4,11,-4,-7
1481274030131080,-7,-20,-4,2,-16,-15,-6,0
1481274030131080,9,7,0,2,11,10,1,-1
1481274030139078,-1,-3,-3,-9,-4,17,25,10
1481274030139078,-2,0,2,4,3,-8,-9,-4
1481274030154018,4,10,-1,5,10,19,0,-4
1481274030154018,-1,-3,-1,-3,-11,-12,28,7
1481274030162523,-1,3,0,4,16,10,-16,-2
1481274030162523,6,8,-2,-4,-6,-4,27,5
1481274030177137,-1,5,-2,-2,-4,0,1,0
1481274030177137,-6,-21,0,1,8,9,-20,-5
1481274030178039,3,8,3,9,-3,-36,17,5
1481274030178039,5,19,3,-6,-5,5,-8,-9
1481274030191109,11,54,5,3,-15,9,4,16
1481274030191109,-29,-79,-14,-10,18,-41,-21,-9
1481274030199038,38,67,8,1,-34,7,14,9
1481274030199038,-49,-123,-23,-6,17,0,3,-8
1481274030214040,18,22,9,1,-11,-18,-18,-12
1481274030214040,-2,22,3,5,29,3,-9,0
1481274030222041,0,-4,-3,-3,7,-5,-10,0
1481274030222041,17,35,6,0,-11,2,-11,-3
1481274030237041,-9,-17,-2,-1,3,7,9,0
1481274030237041,6,9,1,-1,-9,8,1,-2
1481274030238041,-12,-18,-7,-1,22,-7,3,-2
1481274030238041,9,23,6,4,-32,-19,-5,7
1481274030251556,-11,-27,-3,-3,33,13,7,-3
1481274030251556,12,22,-1,1,-11,4,-1,3
1481274030259057,-12,-7,0,-1,-1,-2,-2,-6
1481274030259057,-8,-4,-5,1,2,-8,-10,0
1481274030274568,7,4,-4,-5,-21,1,32,12
1481274030274568,30,26,7,-4,-12,-4,-5,0
1481274030282592,-34,-23,-9,-1,0,7,-3,-3
1481274030282592,10,1,-1,5,5,-1,25,5
1481274030297569,-7,-10,-1,-8,2,5,-24,-5
1481274030297569,-3,17,2,3,-5,-7,-10,-2
1481274030297569,9,6,5,1,-16,-15,34,16
1481274030297569,-2,8,2,2,18,17,-2,-13
1481274030311564,-1,-7,-2,-4,-5,1,-2,-4
1481274030311564,-5,3,2,0,-4,-6,6,2
1481274030318636,1,-8,1,1,-1,6,-14,-5
1481274030318636,-2,1,-2,-3,-8,-4,-7,-2
1481274030333646,2,1,4,2,2,-1,12,2
1481274030333646,-5,-9,-6,-1,-4,11,4,1
1481274030342567,-2,-9,-1,-5,-8,-16,-4,-1
1481274030342567,1,8,1,0,-11,6,-11,-1
1481274030357073,-5,-6,-3,0,12,-11,4,0
1481274030357073,0,-1,-2,-3,-6,-13,-7,2
1481274030358073,-1,-6,0,-3,-11,-18,-5,-1
1481274030358073,13,17,-4,1,28,-6,2,2
1481274030371166,-10,-19,-2,-1,-36,-5,-1,0
1481274030371166,-4,-2,-1,1,24,18,-3,-7
1481274030379097,-4,-4,3,-1,18,2,-8,-1
1481274030379097,1,-2,-1,-4,-16,-4,-3,2
1481274030394157,-1,-3,-1,-1,-8,4,8,1
1481274030394157,-2,2,0,-5,0,14,17,0
1481274030402125,8,6,-4,-2,6,14,6,-2
1481274030402125,-5,-6,2,4,-1,-8,-19,-12
1481274030417182,0,3,-3,-7,-4,-3,9,7
1481274030417182,-4,-13,-1,-3,-19,-1,19,8
1481274030418100,2,4,1,6,13,-29,1,1
1481274030418100,-8,0,-3,-14,-37,19,3,0
1481274030431099,6,9,-1,1,16,-23,-19,-10
1481274030431099,-4,-7,0,-4,-27,-1,-3,0
1481274030439100,-1,-4,-2,5,8,21,2,0
1481274030439100,5,8,1,0,0,-14,-4,3
1481274030454180,-3,-1,-1,4,-10,-5,-5,-3
1481274030454180,-3,6,1,6,29,11,-6,-2
1481274030462181,-2,-9,-1,-7,-33,-34,-8,-3
1481274030462181,0,0,-1,2,13,-1,1,10
1481274030477285,-2,-1,-2,-2,8,12,3,0
1481274030477285,-5,-16,-5,-4,-2,9,-7,-6
1481274030478216,-2,1,-1,4,19,14,-10,-1
1481274030478216,-2,-4,-1,-4,8,2,1,-3
1481274030493260,3,-2,1,-3,-20,-9,3,0
1481274030493260,2,11,2,9,6,-14,2,2
1481274030499217,-3,-4,0,0,5,12,-5,-2
1481274030499217,2,6,-1,-3,-33,-10,-10,-4
1481274030514298,-8,-16,-2,2,37,10,4,-1
1481274030514298,1,2,0,-9,-20,-12,-18,-5
1481274030522289,7,4,-3,-2,-6,10,1,-5
1481274030522289,-4,-2,-1,5,16,38,8,2
1481274030537289,1,6,0,-4,-16,-47,-9,-6
1481274030537289,0,-3,0,-4,-2,5,-7,-1
1481274030538218,-2,-6,-2,4,22,11,10,4
1481274030538218,-2,-3,-1,-2,6,-2,-6,-2
1481274030551797,1,3,-2,0,-6,13,4,-4
1481274030551797,-3,3,-2,-1,24,16,0,-3
1481274030559298,-7,-10,2,-13,-47,-18,-35,-12
1481274030559298,-3,-1,0,16,19,-8,40,4
1481274030574327,0,-11,-5,-6,2,29,27,11
1481274030574327,2,2,0,-1,-20,-16,0,-1
1481274030582318,-2,2,-2,-1,15,13,-5,-4
1481274030582318,0,-2,-1,-6,-24,6,4,0
1481274030597319,8,5,4,2,-6,-41,-32,-11
1481274030597319,-20,-27,-4,0,-1,1,51,4
1481274030598318,-1,3,-3,-2,-7,11,8,-11
1481274030598318,3,-1,0,0,8,-12,-6,11
1481274030611324,6,2,0,4,12,23,-4,2
1481274030611324,2,2,1,-2,-3,-2,-18,-6
1481274030619352,2,4,1,4,2,-4,7,3
1481274030619352,-3,-8,-1,-6,-23,10,-1,-3
1481274030634324,-5,5,-3,1,14,-4,-2,-3
1481274030634324,3,4,-1,2,-43,-8,-7,3
1481274030642402,2,0,-2,3,34,19,5,5
1481274030642402,-4,-3,-4,-3,2,-7,-7,-2
1481274030657329,-1,-2,-2,-2,-28,6,13,5
1481274030657329,0,8,1,-2,-12,-8,-9,-1
1481274030657830,3,-3,-3,-1,8,-1,6,1
1481274030657830,-4,-6,1,6,29,-5,-5,-2
1481274030671842,-6,-3,-3,-4,-2,-1,-4,-4
1481274030671842,1,-1,-3,-9,2,-10,-2,0
1481274030678836,5,23,3,4,12,6,0,4
1481274030678836,-17,-32,-7,-5,-14,-18,5,1
1481274030693908,-4,-5,2,1,6,9,0,-3
1481274030693908,11,15,1,2,13,16,-3,4
1481274030701871,0,7,-2,-4,-19,-5,-3,1
1481274030701871,-17,-33,-4,-7,-6,1,-20,-9
1481274030716910,-2,-5,-4,-2,-24,-4,-1,-2
1481274030716910,-4,-5,-3,0,19,5,3,0
1481274030717839,4,7,2,1,-2,-3,-2,-1
1481274030717839,7,11,2,2,7,-18,-1,-2
1481274030731850,-1,-3,-3,3,10,23,3,-1
1481274030731850,0,2,0,-6,-18,-23,-18,-7
1481274030738915,-7,-14,-5,-4,24,3,13,3
1481274030738915,6,12,-1,0,1,0,-5,0
1481274030754367,1,5,1,1,14,16,-3,-1
1481274030754367,2,11,1,7,-3,-4,-1,0
1481274030762354,-1,-6,0,-3,-12,-4,-5,2
1481274030762354,4,16,-1,-2,1,6,0,-2
1481274030777467,-6,-11,1,1,-6,-2,0,-4
1481274030777467,-3,-8,-4,-7,-2,3,-18,-3
1481274030777467,3,5,4,0,0,-11,-11,-4
1481274030777467,-5,-11,-4,-5,-10,10,23,5
1481274030791448,-3,0,-2,1,12,-11,5,-3
1481274030791448,-1,-5,0,1,6,-4,-11,1
1481274030799378,-8,-22,-6,-4,-14,-1,2,-1
1481274030799378,5,7,2,2,5,-13,0,-1
1481274030814378,2,5,0,0,14,-8,3,4
1481274030814378,3,-3,-2,0,2,-12,-4,-1
1481274030822449,-8,-1,-2,-7,-8,12,-9,-3
1481274030822449,4,6,-1,16,24,-6,-4,-2
1481274030837380,-5,0,-1,-7,-26,-7,-4,-6
1481274030837380,5,8,3,9,37,-7,6,9
1481274030838382,-3,-10,-1,7,2,5,3,1
1481274030838382,-1,9,1,-9,-32,-12,-5,-1
1481274030851476,6,1,2,3,35,-5,-10,-7
1481274030851476,-12,-16,-1,-2,-3,10,11,3
1481274030859486,-3,-8,-5,0,-7,-3,-1,-1
1481274030859486,10,5,1,-4,2,4,2,0
1481274030874511,-6,-12,-5,1,-11,5,-4,2
1481274030874511,3,0,0,-6,-36,1,6,-2
1481274030881507,-2,2,0,5,43,16,2,2
1481274030881507,4,3,-5,-6,-38,-2,-1,-1
1481274030896508,-2,6,1,2,18,3,1,3
1481274030896508,-7,-15,-5,-3,-16,4,3,-5
1481274030904531,5,5,1,-5,-1,-6,-4,-2
1481274030904531,-6,2,4,-1,-2,-7,-3,-1
1481274030911513,-5,-3,0,2,12,3,25,3
1481274030911513,-2,-1,-4,-1,-1,1,2,0
1481274030918583,-1,9,2,0,-16,-3,4,-2
1481274030918583,0,-5,-3,-5,3,4,-2,-1
1481274030934511,0,0,0,0,-3,-3,-4,2
1481274030934511,-1,4,1,-1,9,-3,1,-2
1481274030941523,0,-3,1,0,-7,-6,-3,-3
1481274030941523,-3,1,0,-1,13,15,-3,0
1481274030956519,6,4,-3,-3,-14,-4,-4,-2
1481274030956519,6,22,1,-1,-6,19,8,1
1481274030965020,-4,-28,-4,4,24,-20,3,1
1481274030965020,-7,-9,-3,-6,-7,4,2,-8
1481274030971096,-1,5,0,-5,-27,-9,-6,0
1481274030971096,4,3,1,3,36,2,4,-1
1481274030979027,0,7,1,0,-3,23,1,0
1481274030979027,4,6,5,5,-5,-10,4,4
1481274030994028,5,14,1,-8,-17,-3,0,-1
1481274030994028,-12,-28,-5,1,1,-7,-13,-5
1481274031001098,-3,1,-2,-2,-17,-1,-11,0
1481274031001098,3,1,1,5,40,8,-4,-1
1481274031016100,4,3,2,1,-13,-1,-3,3
1481274031016100,-3,-2,-2,-1,-10,-7,3,3
1481274031025039,-2,1,-1,-3,11,-4,0,0
1481274031025039,3,-2,-1,-1,-8,21,-4,-2
1481274031040060,-7,-5,-2,-4,-7,-30,-8,-2
1481274031040060,-4,-2,0,0,-3,9,8,-1
1481274031040060,8,13,-1,5,2,3,6,-1
1481274031040060,-3,-8,-3,-16,-28,-3,-15,-3
1481274031054110,-10,-13,-4,7,35,16,21,1
1481274031054110,-2,-9,-3,-2,-16,-3,-6,-3
1481274031062612,1,5,2,-4,-16,-9,-1,-3
1481274031062612,4,9,4,1,7,-9,3,2
1481274031076670,-10,-2,-4,-3,-2,-1,-6,-2
1481274031076670,6,4,1,-2,8,-8,-4,2
1481274031084702,0,-3,-3,-3,-8,5,17,4
1481274031084702,-1,-7,-3,2,6,-20,1,0
1481274031099635,1,-1,0,-5,-15,0,-19,-5
1481274031099635,-4,1,1,4,15,7,-2,1
1481274031100633,-4,-4,-4,-7,-11,1,-5,-1
1481274031100633,1,6,2,2,1,2,7,5
1481274031113635,12,6,0,-5,-27,-5,5,3
1481274031113635,-6,-6,-1,2,15,-2,0,-3
1481274031121705,-1,-7,-2,-1,-7,-5,0,0
1481274031121705,0,-2,-2,0,0,-2,3,0
1481274031136706,6,5,-2,-2,-3,6,4,-2
1481274031136706,3,8,1,-2,-15,-6,-1,-2
1481274031144638,2,-4,1,-5,-15,-7,-4,-2
1481274031144638,-19,-27,-7,9,57,12,4,-1
1481274031159717,-6,-4,3,0,-7,-6,-13,-3
1481274031159717,6,11,4,0,-28,-23,1,3
1481274031160717,-1,2,1,1,26,4,-1,0
1481274031160717,4,9,-2,-5,-12,-1,5,-4
1481274031173809,1,-2,0,3,7,1,-6,4
1481274031173809,-3,-3,-1,2,7,4,-1,-4
1481274031181813,1,1,-1,-5,-10,5,2,-1
1481274031181813,2,1,0,-3,-8,-18,-10,-3
1481274031196741,-2,-5,-2,2,6,8,4,-2
1481274031196741,4,5,-1,-4,21,4,-1,0
1481274031204741,-3,-6,-1,2,-4,1,0,-2
1481274031204741,0,4,0,-3,4,3,-5,-1
1481274031219743,0,-3,-1,-2,5,2,0,-2
1481274031219743,2,8,0,-2,-22,0,1,0
1481274031220741,-7,-12,1,6,14,-7,-3,-3
1481274031220741,-1,-2,-2,-2,-8,-12,-2,1
1481274031233743,-2,0,1,2,18,0,0,1
1481274031233743,-2,-5,-3,-1,9,2,-7,-4
1481274031241759,1,6,-1,1,-3,-11,-2,-1
1481274031241759,1,10,2,3,-19,11,1,-5
1481274031256758,1,1,1,-2,-8,-1,-1,3
1481274031256758,-12,-30,-9,-4,-7,10,-2,-3
1481274031264759,-2,0,0,-6,-28,-13,-5,-1
1481274031264759,4,13,5,8,48,9,-6,0
1481274031279276,-1,-3,-5,-2,-10,-1,10,1
1481274031279276,0,4,-1,-1,-4,0,0,-2
1481274031280267,-2,-3,-1,-1,0,-6,-1,-1
1481274031280267,0,-5,1,-2,-19,-2,0,0
1481274031294268,0,1,1,1,14,-1,0,-3
1481274031294268,2,2,-1,-4,-3,1,3,2
1481274031301316,-1,1,-3,0,3,13,0,-3
1481274031301316,-2,-1,-2,2,-1,-1,-3,-1
1481274031316337,2,-4,-1,0,-13,-7,-2,-3
1481274031316337,-2,0,1,0,-2,-23,0,-1
1481274031324267,-1,-1,0,-2,-2,14,-3,-1
1481274031324267,-2,-5,-3,-8,-29,-20,0,1
1481274031339339,1,2,1,1,-5,12,17,3
1481274031339339,6,6,2,3,6,11,3,1
1481274031340270,-6,1,1,1,-8,-18,-7,-1
1481274031340270,4,3,2,1,5,7,-3,2
1481274031354349,-8,-14,-6,-9,-7,1,-10,-1
1481274031354349,-1,-2,-1,-2,-5,-7,-6,-2
1481274031361850,3,-1,0,2,7,3,12,1
1481274031361850,-3,-3,0,0,-2,-1,0,-1
1481274031376089,1,8,2,-1,-5,-8,-6,-3
1481274031376089,-3,2,1,0,16,7,-3,1
1481274031392088,-1,-3,-3,-2,3,-1,-7,-1
1481274031392088,-2,-4,-2,-1,-6,-17,-5,1
1481274031400018,2,0,3,1,21,10,2,-1
1481274031400018,-1,0,1,3,-9,-5,-2,0
1481274031400018,1,2,0,8,13,1,-4,-1
1481274031400018,-2,-3,-3,-7,-15,1,-2,-2
1481274031414019,0,-3,-3,1,5,21,4,1
1481274031414019,-1,-2,-2,2,-7,19,-2,-2
1481274031421020,1,0,1,-11,-23,-23,4,3
1481274031421020,-3,-3,-1,5,22,-1,-1,-1
1481274031437021,-2,0,-1,3,6,0,-7,-3
1481274031437021,0,0,-1,-1,3,-3,2,1
1481274031445022,-1,-1,0,1,-8,0,-4,-3
1481274031445022,-1,-4,-6,-5,-9,15,17,2
1481274031460112,1,2,-3,1,-1,-16,-5,-3
1481274031460112,3,6,0,-2,-5,-2,0,0
1481274031460612,-7,-8,-4,-1,3,-1,-2,-1
1481274031460612,-2,-8,-4,-8,6,-8,-3,-3
1481274031474338,1,3,2,1,-1,1,2,1
1481274031474338,1,-3,0,-8,4,-14,-13,-5
1481274031481333,-2,0,-4,-3,-14,5,0,1
1481274031481333,-3,-2,1,4,5,-5,-7,-4
1481274031496263,0,-1,-2,-5,-14,0,-3,0
1481274031496263,-2,-1,4,8,9,6,-7,-1
1481274031504333,1,0,-1,-12,-18,-2,2,0
1481274031504333,-2,-2,-3,0,-6,7,0,-3
1481274031519334,-2,-1,1,6,23,-8,-8,-3
1481274031519334,0,-3,-1,-5,-15,-10,7,5
1481274031520262,0,1,2,7,17,4,-4,-2
1481274031520262,-2,1,-2,-8,-7,8,1,-3
1481274031534338,1,-1,-1,-3,-27,-9,-3,1
1481274031534338,-1,0,-2,5,28,3,2,0
1481274031541338,-1,-4,-6,-10,-13,1,6,-1
1481274031541338,1,1,-1,9,13,7,2,2
1481274031556823,-2,-2,1,-4,-10,-2,-4,-2
1481274031556823,-2,0,-2,-10,-11,-1,2,-1
1481274031564824,1,4,1,4,10,4,-1,-2
1481274031564824,2,3,1,6,-2,-4,-2,1
1481274031579470,-2,-3,0,-3,0,1,7,2
1481274031579470,1,2,-4,-1,-13,-2,6,1
1481274031580468,3,3,2,4,14,-5,-5,-2
1481274031580468,-6,-1,-7,-15,-23,4,0,0
1481274031593474,0,3,0,4,6,-3,-6,1
1481274031593474,-3,-3,-4,-6,-6,14,-1,-7
1481274031601542,0,-1,-3,0,7,-15,0,0
1481274031601542,1,1,-2,3,5,-2,2,1
1481274031616541,0,3,0,3,1,-1,5,1
1481274031616541,-3,-3,0,-10,-29,4,-2,-2
1481274031624542,2,1,0,-2,5,2,-6,-3
1481274031624542,1,1,7,20,36,-3,-3,-2
1481274031639543,-3,-3,0,-14,-9,-5,1,-3
1481274031639543,-2,-2,-8,0,-17,-4,5,0
1481274031640474,-4,-4,-1,3,17,8,1,0
1481274031640474,0,-1,-2,-5,-23,-8,-2,-1
1481274031654063,-1,0,1,5,14,3,-4,-2
1481274031654063,0,-1,3,5,-7,10,5,1
1481274031661562,-2,-1,1,3,-11,-8,5,1
1481274031661562,-1,-1,0,-4,-1,10,-2,-3
1481274031676635,-2,0,-3,4,5,-15,3,0
1481274031676635,-2,-1,0,-10,-25,-8,-4,-1
1481274031684637,0,-3,-6,1,13,5,-7,-3
1481274031684637,-1,0,1,-1,1,-7,1,-2
1481274031707639,0,1,0,-9,-33,10,-1,0
1481274031707639,-1,-4,-4,3,33,-6,-2,-2
1481274031708637,-1,-2,-1,-2,-16,-1,-4,1
1481274031708637,-1,-1,0,-3,-8,-1,-4,-2
1481274031713641,0,-2,-4,-4,-14,-5,0,-2
1481274031713641,1,1,1,8,20,-1,-3,0
1481274031721638,2,2,2,-4,2,1,-5,-2
1481274031721638,1,-5,-3,-2,-5,4,5,0
1481274031736703,0,-2,-1,-4,9,1,1,-3
1481274031736703,0,1,-2,1,10,-6,1,1
1481274031744642,-1,0,-2,-3,-5,6,5,1
1481274031744642,0,1,1,1,-9,-21,0,1
1481274031760715,-3,-6,-5,-7,1,5,-5,-3
1481274031760715,-2,-2,2,4,20,-2,2,0
1481274031761217,-1,1,1,-1,-11,-4,-2,1
1481274031761217,-2,-2,-2,0,-5,4,-5,-3
1481274031774295,0,-1,1,3,-26,0,-2,1
1481274031774295,0,-3,-2,1,9,-4,0,2
1481274031781294,-3,-2,-4,-5,-8,7,-2,-3
1481274031781294,-1,1,6,15,9,0,8,2
1481274031796224,-1,0,-6,-21,-3,-3,-4,-3
1481274031796224,1,0,-1,9,-4,-4,-6,-2
1481274031804303,-1,-2,5,6,7,1,4,1
1481274031804303,-1,-3,-14,-24,0,-3,-4,-1
1481274031819298,-1,2,3,14,5,-4,-1,2
1481274031819298,-2,1,2,-3,-2,-1,-1,-1
1481274031827228,1,-1,-3,6,14,-2,-3,-4
1481274031827228,0,0,3,0,-7,-6,0,-1
1481274031834305,-1,-1,-2,8,26,1,-2,0
1481274031834305,-1,-1,-1,-10,3,0,-4,-3
1481274031841299,-2,0,5,5,-16,-1,-5,-2
1481274031841299,-2,-3,-5,-4,6,-7,3,1
1481274031856872,-1,-2,-1,3,3,2,-1,-1
1481274031856872,-1,0,3,1,-15,-5,1,-1
1481274031864847,0,0,2,9,2,0,0,-1
1481274031864847,1,-4,1,-5,-9,1,-3,0
1481274031879102,-2,-3,-7,-9,4,-2,-1,-1
1481274031879102,0,-1,1,3,2,-4,-8,-3
1481274031887173,-1,-1,0,-5,-19,4,3,0
1481274031887173,-1,1,2,8,16,-2,-5,1
1481274031894105,-1,1,2,11,7,4,2,1
1481274031894105,-1,-1,-3,-9,0,-1,1,-1
1481274031902105,-2,-2,-1,-4,-6,-6,1,-1
1481274031902105,-1,3,-1,-5,-14,1,-3,-1
1481274031916175,1,2,2,2,-5,-2,0,-2
1481274031916175,-2,1,2,-1,-9,3,0,0
1481274031932125,-3,-5,0,-1,14,4,3,-1
1481274031932125,-2,-3,-10,-13,-7,2,3,-2
1481274031948173,0,-1,-1,-5,-2,-3,4,2
1481274031948173,-1,1,-1,0,-3,-4,3,1
1481274031948173,0,3,6,18,-16,-2,4,1
1481274031948173,1,-1,0,-15,5,9,-1,-2
1481274031962128,0,-4,-8,-14,-11,-8,3,-1
1481274031962128,0,-1,1,-6,5,2,0,-1
1481274031963132,-1,1,-6,-1,1,-1,-4,-1
1481274031963132,-1,1,3,10,14,-16,1,1
1481274031985252,-1,1,4,9,7,16,-3,-2
1481274031985252,-1,-2,-1,-5,-22,-14,0,1
1481274031986168,1,-1,-3,-13,13,-6,2,0
1481274031986168,0,0,2,2,-1,7,-3,-3
1481274031999279,0,-1,2,-3,-11,-2,-3,2
1481274031999279,-1,1,-1,3,12,0,-1,-2
1481274032007240,-2,-1,-4,-1,-11,-4,-6,-4
1481274032007240,0,-1,1,2,-9,2,4,3
1481274032022240,0,-1,2,1,5,-2,3,-1
1481274032022240,-1,0,-1,5,-13,7,3,-1
1481274032023170,-1,-2,-2,-9,16,-4,-2,0
1481274032023170,-1,0,-1,-6,-69,-10,-6,0
1481274032036241,0,-3,-6,-15,63,-3,1,1
1481274032036241,-2,-3,-1,10,-15,2,-1,0
1481274032044176,-1,-3,-7,-22,9,1,-3,-3
1481274032044176,1,-1,1,6,8,3,-1,-3
1481274032059253,2,0,0,1,-16,0,-6,-1
1481274032059253,-1,-3,-2,-4,2,-6,0,-2
1481274032067254,-1,-2,0,3,7,-3,-1,-2
1481274032067254,1,-1,2,9,10,2,0,-2
1481274032081830,0,-1,-1,-10,-39,-11,-2,-1
1481274032081830,-1,-1,1,1,32,7,-3,-1
1481274032082762,-1,0,-4,-4,-24,-3,-1,0
1481274032082762,-1,0,-3,3,12,-1,-4,-1
1481274032096843,-4,0,4,10,6,2,-1,-1
1481274032096843,1,-1,-1,0,-13,-5,-1,2
1481274032104833,2,-1,0,-7,-1,0,-2,0
1481274032104833,-2,-4,1,-2,-15,1,3,0
1481274032118784,0,0,-3,4,0,-4,1,-1
1481274032118784,-1,-2,-2,-3,-2,2,-2,-3
1481274032126815,0,3,0,7,-8,-11,6,4
1481274032126815,-1,-2,-1,6,2,8,6,0
1481274032150771,-2,-2,4,-2,-15,-2,0,0
1481274032150771,0,-2,-5,-12,4,-3,0,-2
1481274032150771,1,-1,2,10,2,6,1,-1
1481274032150771,1,-2,0,-3,1,-7,-3,-1
1481274032156775,-2,-2,-1,7,3,2,5,-1
1481274032156775,-3,-2,-2,1,-2,5,-1,1
1481274032164776,-1,-3,-4,-6,0,9,-4,1
1481274032164776,0,1,-4,1,3,-17,3,3
1481274032178788,-1,0,-1,0,0,5,-5,-2
1481274032178788,-2,-1,-1,-2,0,-11,-2,-4
1481274032186854,-3,-1,-3,-5,5,-6,-8,-2
1481274032186854,-3,-5,-2,-1,0,26,15,3
1481274032201789,-1,-1,-2,4,13,14,0,-2
1481274032201789,0,-1,2,-1,-32,-7,-3,-1
1481274032202783,-1,1,1,1,25,-13,-3,-3
1481274032202783,1,2,0,2,10,4,-7,0
1481274032216784,-1,-1,-2,-6,-5,-14,-5,0
1481274032216784,-1,-1,0,5,1,8,-1,-2
1481274032224869,-1,-1,-4,-2,-3,1,0,-2
1481274032224869,-1,1,-1,5,9,6,-13,-6
1481274032238785,-2,-1,7,5,-10,-10,3,0
1481274032238785,3,-1,-2,-19,4,-9,-1,0
1481274032246790,0,-1,1,11,7,4,-4,-1
1481274032246790,0,-3,-8,-35,-7,-7,-4,-1
1481274032262387,-3,1,1,19,25,-2,-2,-3
1481274032262387,1,2,7,8,-8,2,-4,2
1481274032262883,-3,-2,1,-11,-20,-5,1,0
1481274032262883,0,0,-1,4,-12,-15,-2,0
1481274032276889,-1,-2,-3,-5,4,6,1,1
1481274032276889,-4,-2,-6,-1,12,4,4,0
1481274032284893,-1,-2,-5,-7,-14,6,11,0
1481274032284893,-1,1,-1,2,4,16,-8,-1
1481274032298892,2,-1,-2,-2,5,3,12,3
1481274032298892,-2,-1,-2,-4,-16,-4,1,-2
1481274032306962,-1,0,2,12,4,4,-2,-1
1481274032306962,-1,-2,1,-1,-1,-8,-2,-1
1481274032321963,1,-2,-5,-12,-7,1,-8,-3
1481274032321963,1,0,2,7,6,1,0,-1
1481274032322891,0,0,-3,-10,-13,7,8,2
1481274032322891,-1,-4,-15,-3,13,-1,3,-3
1481274032336894,-3,-1,-1,-6,-8,-6,-4,-3
1481274032336894,-1,0,0,1,0,0,-5,-2
1481274032344894,-2,2,6,11,1,-3,-5,-3
1481274032344894,1,3,4,7,-4,-6,-1,0
1481274032358974,0,-2,-7,-17,2,-4,0,2
1481274032358974,0,0,-2,3,4,-2,0,0
1481274032374564,1,0,6,18,11,7,-7,-3
1481274032374564,-1,-2,0,-12,-13,-6,1,-1
1481274032382503,-1,-2,-1,13,47,-5,-4,0
1481274032382503,-1,-1,-3,-4,-8,-4,-1,0
1481274032382503,-3,-2,1,10,-1,-1,1,3
1481274032382503,-2,-2,4,-11,-4,-24,2,1
1481274032396604,0,3,-1,7,-31,7,-7,-3
1481274032396604,0,-1,-1,6,10,-17,0,0
1481274032404639,-1,-1,-2,-6,-6,3,0,-1
1481274032404639,0,-1,4,2,9,5,0,1
1481274032418512,1,1,1,-5,-25,-2,2,-1
1481274032418512,0,0,-5,-8,9,11,-2,-1
1481274032427500,0,-1,-2,-2,-3,-6,2,1
1481274032427500,-2,-2,-2,-16,-11,-1,-7,-3
1481274032442534,-2,-1,-3,1,2,-4,-3,0
1481274032442534,-3,-2,-6,3,-7,11,-1,0
1481274032442534,-1,-1,-3,-24,-15,-17,-2,-1
1481274032442534,-1,0,-1,16,12,8,1,-2
1481274032456563,-4,-1,1,-6,14,-5,4,1
1481274032456563,1,1,4,0,-9,4,6,2
1481274032465065,0,-2,-3,-3,-11,3,1,0
1481274032465065,-1,-1,0,5,-2,12,0,0
1481274032487587,-2,-2,-1,0,-20,-18,-2,-3
1481274032487587,-2,-2,-1,-4,9,-5,-1,-1
1481274032488587,2,2,-1,-4,-2,5,0,-1
1481274032488587,-2,1,2,5,2,2,-3,-2
1481274032502657,-2,-1,-1,3,2,8,1,-2
1481274032502657,-1,-2,-3,-10,0,-17,-12,-2
1481274032503586,-1,-1,0,1,-1,-7,2,-1
1481274032503586,-1,0,-2,4,4,-3,0,-1
1481274032516589,2,-1,-2,-5,-16,-3,-1,-1
1481274032516589,-1,-2,-3,-1,50,13,-3,-1
1481274032524589,0,-2,-1,2,-13,-1,0,1
1481274032524589,0,-1,0,3,15,-9,2,2
1481274032538660,0,2,4,11,-32,3,3,-1
1481274032538660,-1,-2,-2,-16,-12,3,5,1
1481274032547594,1,-2,-2,0,9,-3,-3,-2
1481274032547594,-3,-4,-2,-1,1,7,2,-2
1481274032562170,-1,-3,-2,7,21,1,-2,-2
1481274032562170,-1,-3,-3,-7,-2,-5,1,-1
1481274032563172,0,-1,2,3,13,3,0,1
1481274032563172,-2,0,-6,-8,-9,-7,0,-2
1481274032576776,-1,-4,1,-2,2,9,1,-2
1481274032576776,-2,-2,0,6,-11,-1,-1,-2
1481274032584697,-2,1,0,-5,6,-18,-4,0
1481274032584697,0,2,2,13,36,0,0,-2
1481274032598766,-3,0,-4,-11,-3,5,0,1
1481274032598766,1,0,-2,2,-14,-7,-1,0
1481274032607696,-4,-2,-3,-5,-3,6,-2,-1
1481274032607696,1,-1,0,3,-2,-1,-2,0
1481274032621765,-3,0,2,1,15,-8,-5,-3
1481274032621765,0,-1,0,6,-11,6,12,4
1481274032622695,0,-2,-2,-2,4,0,-1,-3
1481274032622695,-2,-2,-5,-11,-20,-5,-3,-2
1481274032636786,0,1,-2,-5,-5,-4,-2,-3
1481274032636786,1,1,6,1,16,2,-3,-3
1481274032651768,-2,-2,-5,-2,0,-1,-5,-1
1481274032651768,-1,-3,2,2,-2,2,5,0
1481274032659207,0,-1,-8,-19,-10,2,-3,-1
1481274032659207,-1,0,2,13,-3,-3,0,1
1481274032667209,1,0,0,-9,-15,-3,1,0
1481274032667209,0,-2,-2,4,29,27,3,-2
1481274032682020,-1,1,-2,7,-1,-16,-5,0
1481274032682020,-3,0,0,2,-2,2,1,0
1481274032682950,-1,-2,2,-4,-6,1,-3,-1
1481274032682950,0,-1,0,-2,-20,-13,-2,-1
1481274032696951,1,-2,1,3,3,6,2,1
1481274032696951,-1,-2,-11,-16,-8,-3,-5,-3
1481274032704950,1,3,5,11,13,9,-1,1
1481274032704950,-1,-1,-5,-21,-11,10,1,0
1481274032719028,-1,-1,3,3,-11,-14,2,0
1481274032719028,-1,0,1,1,-3,-2,-6,-1
1481274032726952,-1,-1,-3,-6,1,-5,-1,1
1481274032726952,-1,0,1,6,-3,1,0,-1
1481274032742011,-2,1,-3,-5,0,7,2,1
1481274032742011,-1,-1,2,13,-8,-11,-1,-2
1481274032742952,-2,-2,-4,-6,2,-2,-4,-3
1481274032742952,-2,-1,1,8,-27,-12,0,-1
1481274032765058,-1,-2,2,1,34,7,-2,0
1481274032765058,0,-3,0,3,-10,-1,-2,0
1481274032765536,-3,0,2,11,4,-2,-1,-3
1481274032765536,-1,-3,-8,-27,-2,-3,-5,-2
1481274032780555,1,0,2,9,-27,-2,2,0
1481274032780555,0,2,1,-1,8,3,-1,-1
1481274032787558,1,-1,1,1,-22,-6,4,0
1481274032787558,1,-1,-6,1,39,5,1,-1
1481274032801557,-2,-4,-5,1,-3,3,1,-1
1481274032801557,-2,-1,8,8,11,0,0,-1
1481274032818647,-1,-2,-9,-33,-29,4,1,-2
1481274032818647,-1,-2,0,0,18,-9,-3,-1
1481274032824628,4,1,1,-3,-19,-1,2,1
1481274032824628,-1,-1,-2,-1,-2,-3,-1,-1
1481274032825558,-1,-1,4,16,15,-1,-3,-1
1481274032825558,-2,-1,4,2,-4,-2,-3,-1
1481274032838630,1,-2,-4,2,6,-3,6,2
1481274032838630,-1,0,-1,-11,-8,9,-1,0
1481274032847584,-1,-2,-2,0,18,3,0,-1
1481274032847584,-1,-1,0,-2,-27,-8,1,2
1481274032861569,-3,-2,-2,-1,7,1,-6,-3
1481274032861569,-2,-3,-3,-6,-2,3,1,-1
1481274032869733,0,-1,-4,1,8,-1,-3,-3
1481274032869733,1,3,5,0,-9,1,2,0
1481274032877589,-2,-1,-3,-16,0,-2,-4,-2
1481274032877589,-1,-1,-3,0,6,16,4,-1
1481274032884591,-1,1,7,3,-11,-30,0,1
1481274032884591,-1,2,-1,18,45,4,-1,-1
1481274032898602,-2,-1,2,4,-9,1,-2,0
1481274032898602,1,-2,5,7,-1,2,1,0
1481274032907596,-1,-2,-7,-8,20,4,2,0
1481274032907596,-1,-1,3,3,-26,-2,2,-1
1481274032921592,0,-1,-3,-12,-4,13,5,-3
1481274032921592,0,-1,-5,4,11,-18,-1,-1
1481274032929662,2,2,7,16,3,10,-1,1
1481274032929662,-1,-3,-4,-15,-38,-2,3,1
1481274032944592,-1,-2,-5,-5,11,-6,-8,-2
1481274032944592,-2,-1,0,1,5,-3,-2,-1
1481274032945593,-3,-1,-6,-4,-10,0,1,0
1481274032945593,-1,2,-1,1,8,-1,-14,-4
1481274032959099,1,-1,2,1,-28,-5,0,0
1481274032959099,0,0,1,4,5,-4,3,-1
1481274032967101,0,-3,-6,-18,-39,8,0,1
1481274032967101,-1,-2,-2,13,16,-5,2,1
1481274032981178,-1,2,4,0,-6,-4,-4,-2
1481274032981178,-2,0,-1,0,6,1,6,0
1481274032990120,-4,-3,3,12,-9,3,-3,-6
1481274032990120,-1,-1,-11,-32,-12,-4,-4,-2
1481274033005113,-2,0,-4,-8,9,-5,-2,-2
1481274033005113,0,2,-3,-12,16,0,-1,2
1481274033005113,1,-1,2,14,4,6,-4,-1
1481274033005113,0,-2,3,3,-4,-5,-1,-2
1481274033019180,0,-5,1,7,20,-1,-1,0
1481274033019180,0,-1,-3,-4,-22,-7,-1,1
1481274033027111,0,1,-3,-6,5,0,-1,-1
1481274033027111,0,0,-1,7,21,-2,4,2
1481274033041182,-3,0,-1,-6,-11,2,-3,-2
1481274033041182,-4,-1,2,2,-1,-4,-5,-4
1481274033050117,0,-1,-1,2,15,-12,-4,1
1481274033050117,0,-4,5,4,-10,3,-1,-3
1481274033065120,1,-1,1,3,8,9,5,0
1481274033065120,-1,-4,-3,9,-10,-7,-6,-2
1481274033065619,0,1,4,-8,-4,-4,-1,2
1481274033065619,-3,0,-8,-3,13,6,-1,-2
1481274033078641,0,-2,-3,2,-20,-10,1,1
1481274033078641,1,1,0,6,2,2,0,0
1481274033087644,-1,-1,-1,11,4,-4,0,-2
1481274033087644,-3,0,5,8,-20,4,13,4
1481274033101711,0,0,-1,2,15,-1,1,3
1481274033101711,-1,-2,-4,-16,-39,-1,-1,1
1481274033109712,0,-1,1,9,35,3,1,-4
1481274033109712,-1,1,1,-4,-4,-3,-3,0
1481274033124714,0,1,-5,-7,-7,-1,-3,-2
1481274033124714,-2,-1,3,-3,-17,3,1,-1
1481274033125643,-3,-3,-7,-15,-12,1,1,-1
1481274033125643,-2,-2,-2,-9,-3,2,4,-2
1481274033138716,-4,0,1,-1,-11,4,0,-3
1481274033138716,-1,0,2,8,28,-5,-4,-2
1481274033147715,-2,0,2,5,12,-1,-3,0
1481274033147715,0,-1,-4,-11,-8,-4,-7,2
1481274033162155,0,-2,0,9,-2,-3,-1,1
1481274033162155,-1,-4,-3,-2,3,11,2,-1
1481274033169756,0,0,0,-7,-10,-2,-1,-1
1481274033169756,1,0,0,1,-5,-5,0,1
1481274033184686,0,1,3,5,7,4,4,2
1481274033184686,-1,1,0,0,-7,0,-4,1
1481274033185685,0,-1,-5,1,-8,1,0,-1
1481274033185685,1,0,3,-1,-5,2,-6,-3
1481274033198687,-2,-4,-6,-10,3,-6,-5,-3
1481274033198687,-1,-1,-4,-10,17,1,0,0
1481274033207689,-3,-1,-1,-2,3,3,-1,-3
1481274033207689,0,1,0,-6,-8,-7,0,-3
1481274033221689,-1,0,-1,3,5,5,-1,-1
1481274033221689,-2,-2,-3,-6,-6,-4,-3,-2
1481274033229808,0,1,4,-1,-6,-2,1,0
1481274033229808,-1,-3,-7,-8,-17,-6,-3,-3
1481274033244688,-2,-1,-1,3,14,1,4,0
1481274033244688,-2,-2,1,-7,7,-1,-3,-2
1481274033245689,0,0,0,-1,-8,-7,-1,0
1481274033245689,-1,1,3,15,-4,6,5,2
1481274033259195,-1,0,3,7,-2,-5,-6,-5
1481274033259195,2,1,-5,-21,-24,-1,1,-2
1481274033267697,1,2,1,16,93,2,-2,0
1481274033267697,-2,0,-2,0,-14,-3,-7,-1
1481274033281205,-1,0,-1,-1,-2,3,-1,-1
1481274033281205,-1,-1,3,12,1,2,2,-1
1481274033289283,-1,-3,-6,-9,-24,3,3,-1
1481274033289283,0,-1,-1,0,11,-1,-4,-4
1481274033305208,-2,-2,-1,-2,3,-4,-1,0
1481274033305208,-1,1,3,5,-8,1,1,0
1481274033305208,-2,-4,-3,-2,-25,2,-1,0
1481274033305208,-1,-4,-2,-4,7,-1,-2,-2
1481274033319271,1,-2,1,2,6,2,1,-1
1481274033319271,-2,-2,-4,-2,-24,-2,-1,-3
1481274033334323,-1,-3,-7,-12,-17,-6,-1,-2
1481274033334323,1,2,6,17,53,6,1,1
1481274033341278,-1,-1,2,-11,-18,-3,2,1
1481274033341278,-2,0,-2,4,-6,-2,1,1
1481274033350210,-2,2,-1,-6,0,-7,-6,-3
1481274033350210,-1,-4,-3,-7,-44,1,-2,-2
1481274033364791,0,0,-2,0,31,-3,-2,-1
1481274033364791,0,1,0,-3,10,-4,-1,0
1481274033365790,2,1,2,4,-22,-1,2,1
1481274033365790,-2,-4,-2,-1,3,-4,-4,0
1481274033378811,-3,-2,-2,3,-1,3,0,0
1481274033378811,0,-1,-6,-9,-28,-9,-2,0
1481274033386887,0,1,2,4,12,3,-1,-2
1481274033386887,-1,0,-2,-4,25,-1,-1,-2
1481274033401837,-2,-3,-4,-11,-15,-5,-7,-3
1481274033401837,-1,1,2,5,-13,0,-1,-2
1481274033409813,-2,-1,-2,1,35,1,0,-2
1481274033409813,0,2,-1,-3,-11,-5,-1,-1
1481274033424884,1,1,0,1,-33,-4,-3,-3
1481274033424884,0,-9,-1,1,31,7,2,0
1481274033425812,-1,-4,-2,-8,-25,4,2,3
1481274033425812,1,7,1,1,-5,-2,1,2
1481274033441817,-4,-14,-1,2,-1,1,1,0
1481274033441817,-1,0,0,-3,2,-3,-3,-2
1481274033446818,-4,-4,-4,-8,1,3,-4,-1
1481274033446818,-1,-1,-2,1,-12,-16,-1,-1
1481274033461824,0,4,-1,-9,-22,-3,0,2
1481274033461824,2,-1,2,8,56,1,2,0
1481274033469924,-1,-2,0,1,-13,2,-1,-4
1481274033469924,0,-3,1,-8,11,1,0,0
1481274033484926,-1,0,-2,-6,-5,-1,-3,0
1481274033484926,-1,0,-2,-1,-25,-4,-2,-1
1481274033485855,1,5,-1,5,-9,-5,0,2
1481274033485855,-2,-2,-2,-1,-30,2,1,-1
1481274033500855,2,2,-1,7,38,0,-1,-1
1481274033500855,-2,1,0,-8,-24,-2,-3,0
1481274033506927,-3,3,5,1,2,-4,-6,-2
1481274033506927,-5,-18,-1,4,-2,2,-3,-3
1481274033521866,-2,-2,-3,-3,-9,-1,1,-3
1481274033521866,-1,3,-1,3,8,0,0,-2
1481274033529930,4,5,-2,-4,-14,-2,-1,-1
1481274033529930,2,3,-1,-1,3,1,1,3
1481274033544858,0,3,-1,1,-8,2,-1,-1
1481274033544858,-1,-2,-3,0,-26,7,3,-3
1481274033544858,-2,-3,2,-4,-9,-7,-3,-1
1481274033544858,3,5,3,5,-5,0,0,-1
1481274033559369,-1,0,1,4,1,-4,-2,1
1481274033559369,-1,-3,0,-2,-23,-1,-3,1
1481274033567369,-2,-5,-3,2,32,0,-1,1
1481274033567369,-3,-1,-2,8,8,4,1,0
1481274033581377,2,2,-2,1,26,-8,2,-1
1481274033581377,-3,-2,-2,-6,2,-3,-3,-1
1481274033589439,-1,-1,1,3,4,2,2,-1
1481274033589439,1,-3,0,-6,-14,-2,-4,-1
1481274033612375,-2,-2,-1,0,-3,4,0,0
1481274033612375,0,1,-2,0,16,2,0,0
1481274033613376,4,6,-5,-2,-41,8,12,4
1481274033613376,-4,-3,-3,-12,-14,0,0,-1
1481274033619383,-8,-25,-2,4,0,2,4,-1
1481274033619383,0,2,1,-2,1,-4,-2,-1
1481274033627385,-1,-1,-2,1,-10,-2,-2,-1
1481274033627385,1,5,-1,2,7,2,0,-1
1481274033641448,2,8,1,0,61,4,2,0
1481274033641448,-1,-4,-3,-2,-6,0,1,0
1481274033649387,3,-1,2,1,11,1,-2,0
1481274033649387,1,2,-1,2,15,-2,-1,0
1481274033664893,0,2,0,-6,-3,-6,-6,-1
1481274033664893,-2,0,1,2,15,1,-1,1
1481274033665890,-4,-4,-4,-3,2,-3,-5,-3
1481274033665890,-1,-3,1,5,4,7,0,-3
1481274033679406,-2,6,2,3,-18,3,-2,-3
1481274033679406,0,-4,-2,3,9,1,-1,0
1481274033688406,-2,-7,-3,-10,-19,-2,-7,-3
1481274033688406,-2,-2,2,7,-7,-4,-1,1
1481274033701486,4,5,0,-9,33,-4,-1,-1
1481274033701486,0,1,0,2,-10,0,-3,-2
1481274033710403,-4,-14,0,5,1,-2,-4,-3
1481274033710403,-2,-1,-3,1,-7,-2,-1,-3
1481274033724405,0,0,2,0,-17,1,1,0
1481274033724405,-1,-1,0,-1,-17,-3,-1,-1
1481274033733403,2,4,0,-13,-13,-1,5,1
1481274033733403,-2,-2,1,10,13,-4,-3,0
1481274033739413,-3,-9,-3,4,-31,2,2,1
1481274033739413,-1,0,-3,-2,20,4,0,0
1481274033748403,-1,-1,-2,-2,-8,0,2,2
1481274033748403,1,2,1,-6,-23,-3,0,1
1481274033761510,2,9,-2,1,11,2,-1,-3
1481274033761510,-4,-9,-5,-11,-9,-4,-1,-1
1481274033771079,0,3,-4,2,18,0,2,0
1481274033771079,2,0,1,-6,-12,2,4,-3
1481274033784082,-1,-3,-3,3,-6,-3,0,-3
1481274033784082,2,8,1,0,10,-4,-3,-3
1481274033793080,-1,0,0,-6,-2,0,-3,-1
1481274033793080,0,-7,-4,2,56,-2,-3,-1
1481274033799083,-3,-4,0,-2,-30,1,-2,1
1481274033799083,-2,0,2,6,1,6,7,2
1481274033815113,-1,2,1,4,12,-1,-1,-1
1481274033815113,-1,3,-2,-2,-5,2,-1,1
1481274033821184,0,1,-1,-2,-10,-2,1,0
1481274033821184,1,1,-1,4,38,-4,-2,0
1481274033830090,-2,-4,-2,-4,-14,1,0,0
1481274033830090,0,2,3,0,-5,0,0,1
1481274033844083,-1,1,-1,-5,-13,-4,-3,-2
1481274033844083,0,-4,-2,-7,-34,-4,-1,-1
1481274033853083,-1,4,0,7,18,3,4,-1
1481274033853083,-3,-1,-3,-7,9,-1,-1,-1
1481274033867597,0,0,-1,-4,-16,-2,-3,-1
1481274033867597,1,-4,1,0,7,-7,-7,-2
1481274033873674,1,2,4,6,10,5,1,-1
1481274033873674,0,2,0,-2,-43,-3,-2,-1
1481274033881673,2,7,0,2,30,1,0,0
1481274033881673,-8,-24,-4,-2,5,-1,-1,-2
1481274033890607,1,-4,0,-1,-3,-4,-1,-1
1481274033890607,-5,-17,-9,-3,-4,4,-2,-2
1481274033903675,-1,4,0,-1,-9,2,1,0
1481274033903675,1,10,2,2,9,1,-3,-1
1481274033912621,1,-2,-3,-3,-19,-6,0,1
1481274033912621,-1,3,-2,-4,17,-7,0,0
1481274033926606,-1,-3,0,2,-5,3,-1,1
1481274033926606,-1,0,0,-3,7,-7,0,0
1481274033935609,-4,-4,1,4,11,2,0,-2
1481274033935609,2,5,1,5,7,4,-2,0
1481274033941675,-2,-2,-1,-1,-2,-2,0,-1
1481274033941675,-3,-1,-1,0,-5,4,-1,0
1481274033950612,-2,-9,-5,-9,-5,-7,-6,-2
1481274033950612,-3,-4,0,3,8,4,3,-1
1481274033964122,-1,1,-3,-2,1,-2,-1,-1
1481274033964122,-1,8,-2,-1,0,0,-3,-1
1481274033972634,-6,-16,-2,-5,4,-5,-3,-2
1481274033972634,0,3,3,9,26,3,1,-2
1481274033986630,-4,-10,-1,-1,-9,-3,-2,-3
1481274033986630,3,7,1,-1,0,-2,-1,-3
1481274033995631,3,10,2,5,10,0,1,0
1481274033995631,2,2,-1,-3,-25,-6,-1,3
1481274034001632,-5,-10,-3,0,7,2,0,1
1481274034001632,-2,-3,-3,1,8,3,2,1
1481274034010635,-1,0,-2,-4,-20,-6,-2,-1
1481274034010635,3,2,-1,1,44,1,0,1
1481274034023710,0,6,0,-2,-12,-4,0,-2
1481274034023710,0,1,-2,-5,-25,-2,-1,1
1481274034032637,0,-6,-5,-4,-4,0,-3,-1
1481274034032637,0,2,-1,-4,-43,-3,0,0
1481274034046639,-1,-4,2,10,53,7,0,-1
1481274034046639,-1,-1,1,-4,-18,-7,1,2
1481274034055744,0,4,2,0,-16,1,-1,0
1481274034055744,-2,-6,-4,-12,-2,-7,-6,-3
1481274034061744,0,3,1,0,-4,6,4,-1
1481274034061744,-4,-6,-2,-1,-6,4,7,-1
1481274034070751,0,-1,-3,-1,4,-5,-2,-2
1481274034070751,-1,-6,-6,-4,-3,2,3,-2
1481274034083868,0,-1,-1,-7,-17,-7,-2,-1
1481274034083868,1,5,0,0,7,-3,-5,-1
1481274034092752,0,5,-1,-7,-13,-3,0,-3
1481274034092752,-5,-11,-2,0,-1,1,-1,-2
1481274034106827,3,6,-2,3,28,1,-2,0
1481274034106827,-3,-8,0,5,-14,1,-1,-3
1481274034115754,-4,-2,-1,4,23,3,0,1
1481274034115754,2,3,3,5,-7,4,-2,-1
1481274034121827,1,-3,-2,-4,-25,-8,-4,1
1481274034121827,0,-1,-4,-5,23,-5,-2,1
1481274034130755,-1,-1,-1,3,-5,4,2,-1
1481274034130755,0,2,-2,-3,-6,0,1,-1
1481274034143758,-2,-4,-2,0,-7,0,1,-1
1481274034143758,-1,0,1,0,-1,-1,1,-2
1481274034152760,1,5,1,-3,-19,-2,0,1
1481274034152760,-1,-7,-2,-6,16,-7,-5,-2
1481274034166765,-2,-1,-3,-3,-41,2,1,0
1481274034166765,3,7,-3,0,10,-2,-9,-1
1481274034175383,-3,-16,-1,7,15,1,1,0
1481274034175383,0,-4,-2,-5,-37,-7,-2,-1
1481274034181455,-3,-5,-6,-7,22,-6,-1,-5
1481274034181455,0,2,0,-4,-1,-3,-2,-2
1481274034190385,5,12,2,1,6,5,1,-1
1481274034190385,-5,0,1,1,1,-5,-4,-3
1481274034204444,-1,-11,-6,-5,-8,0,-2,0
1481274034204444,-1,-4,0,3,13,6,3,-1
1481274034213386,-2,-4,-3,-9,-30,-9,-6,-2
1481274034213386,3,8,2,7,26,4,5,2
1481274034226491,2,7,5,7,-20,-1,-3,-2
1481274034226491,-1,-2,0,2,26,0,-3,0
1481274034235386,0,0,-4,-4,8,-2,-3,0
1481274034235386,1,1,-2,-2,-31,-1,0,0
1481274034241449,-3,-2,0,-2,-7,-5,-1,-3
1481274034241449,-3,-5,0,3,0,2,1,-1
1481274034250387,-2,2,3,2,-19,-4,-1,-3
1481274034250387,6,13,3,-3,34,4,0,1
1481274034264467,-4,-8,-4,-9,6,-6,-3,-2
1481274034264467,-2,-2,-2,-4,-14,0,3,0
1481274034272558,0,6,1,5,17,4,3,0
1481274034272558,4,17,3,-1,-7,0,-1,0
1481274034286567,-10,-4,-3,1,10,-2,0,0
1481274034286567,-3,-24,-9,-3,-11,1,-1,-3
1481274034295487,1,-2,-2,0,34,5,3,1
1481274034295487,0,-1,1,1,-8,2,0,-2
1481274034301558,3,17,1,-1,3,3,0,1
1481274034301558,0,7,-1,-11,-12,-7,-5,-2
1481274034310490,-3,-6,1,6,5,-3,-3,0
1481274034310490,-2,0,2,0,7,-6,-7,-1
1481274034324490,2,-4,2,-3,-24,-1,2,2
1481274034324490,0,-9,-2,1,8,2,0,-1
1481274034332584,0,2,-2,-4,-28,3,3,0
1481274034332584,-5,-7,0,-2,-2,-1,-2,-2
1481274034346560,-2,-4,0,7,37,7,-1,-3
1481274034346560,-1,3,0,-1,-4,0,-5,-2
1481274034355569,0,4,0,-6,-1,-2,-5,-2
1481274034355569,-7,-10,-4,6,4,8,2,-1
1481274034361570,1,1,0,-1,-21,-3,0,0
1481274034361570,3,7,4,6,0,-2,2,1
1481274034370673,1,11,-1,4,37,1,0,-1
1481274034370673,-6,-16,-3,-2,-14,-7,0,-2
1481274034383745,-5,-7,-6,-2,1,-6,-2,-3
1481274034383745,0,10,2,0,-6,-6,-2,-1
1481274034392677,-3,-3,0,-4,-17,-5,-2,-2
1481274034392677,0,8,-3,-4,4,5,-1,-2
1481274034406740,0,-3,1,4,5,-1,-1,0
1481274034406740,-1,-3,1,2,-16,-1,4,1
1481274034415678,0,-3,-2,-4,-15,-1,-7,-4
1481274034415678,1,-3,-4,-1,-8,12,2,0
1481274034421767,-1,0,0,-3,9,4,-4,-1
1481274034421767,-1,0,-6,-7,-18,13,11,2
1481274034430678,-2,-6,1,2,-1,-1,-1,0
1481274034430678,-1,-3,-2,4,24,-4,2,-1
1481274034443677,1,0,-6,-16,-30,-8,-2,-1
1481274034443677,-1,0,0,-3,10,-1,-3,-2
1481274034452680,-2,0,-2,3,-10,1,2,-1
1481274034452680,-1,-6,-2,-6,-6,-3,0,-1
1481274034466688,-2,-1,3,14,20,28,14,4
1481274034466688,3,6,2,-1,0,-9,-2,1
1481274034475707,0,-5,-3,-4,-16,-8,-1,-3
1481274034475707,-2,-6,2,6,0,2,8,3
1481274034481778,2,4,1,-1,4,-9,-4,-3
1481274034481778,1,10,-1,-5,-10,-6,-6,-3
1481274034490709,-6,-21,3,9,23,12,9,2
1481274034490709,2,2,-1,-6,-27,-13,-4,0
1481274034503780,1,1,-1,-1,10,4,6,3
1481274034503780,0,-5,0,9,-7,8,2,1
1481274034512710,3,4,-1,-4,-1,-3,-4,0
1481274034512710,-2,-1,2,8,11,3,2,-1
1481274034526715,-2,-3,3,9,0,3,-1,-1
1481274034526715,-3,0,-2,-2,-19,1,-2,-2
1481274034543712,-1,3,-4,-11,17,-8,-3,-2
1481274034543712,-2,1,-4,-3,5,4,4,-3
1481274034544713,-1,-3,-4,-9,-17,-10,-6,-4
1481274034544713,-3,-6,-4,-4,9,0,-2,0
1481274034550711,1,-2,-2,-2,-1,-8,-14,-3
1481274034550711,0,0,4,7,0,-3,0,0
1481274034564218,3,7,2,-1,4,-5,-2,-3
1481274034564218,1,2,1,-2,1,-2,-3,-1
1481274034572767,-6,-9,0,13,7,1,3,-1
1481274034572767,-1,2,-3,-6,2,-16,-5,-1
1481274034595776,0,-1,-2,-4,-19,-8,-4,0
1481274034595776,5,12,10,13,19,-8,1,4
1481274034596767,-6,-15,-8,0,-12,-9,1,-1
1481274034596767,-1,-1,0,-2,1,3,-3,-1
1481274034601766,-2,-4,-4,-7,4,6,2,0
1481274034601766,0,3,-1,-2,6,8,-1,0
1481274034610767,2,5,3,-4,-21,-1,-2,-1
1481274034610767,2,-5,-1,-1,18,1,0,0
1481274034623838,-1,-2,-5,-7,2,-2,-5,-4
1481274034623838,0,-4,1,-4,-13,-8,-5,-2
1481274034632770,0,2,-5,-5,-2,1,-1,-1
1481274034632770,-4,-4,-5,-7,-5,-1,-3,-4
1481274034646843,3,1,1,5,24,-3,-3,0
1481274034646843,-4,-7,-4,-2,6,-5,-2,-4
1481274034655852,0,0,0,-1,-6,5,5,1
1481274034655852,2,5,4,7,6,-1,1,2
1481274034661851,0,2,3,0,-6,-7,1,0
1481274034661851,-6,-9,-4,-1,2,5,-1,-1
1481274034669851,2,1,4,6,-1,13,-2,1
1481274034669851,-2,1,-7,-6,-16,-8,-8,-2
1481274034683974,-4,-11,-2,-1,-30,-4,8,1
1481274034683974,1,-2,0,4,10,-6,4,1
1481274034692903,1,10,4,-1,8,-1,-2,-1
1481274034692903,-1,-7,4,0,-29,-2,-1,1
1481274034706906,3,10,1,5,8,-3,-3,-3
1481274034706906,-4,-15,-3,-1,-2,-2,-1,0
1481274034721976,-1,-1,-4,3,6,-5,5,-1
1481274034721976,-1,-3,-2,-10,-1,-1,-1,-2
1481274034722905,-4,-2,0,4,0,19,0,-1
1481274034722905,1,4,1,-7,-18,8,-1,-1
1481274034729980,2,2,-1,-1,2,8,-3,-1
1481274034729980,-2,-1,0,3,10,6,-1,-2
1481274034743907,-1,-3,-3,-3,-3,-5,-4,-2
1481274034743907,1,2,-2,-3,-6,-2,-1,0
1481274034752908,0,-2,-1,4,43,3,6,1
1481274034752908,-2,-2,-6,-9,-2,-2,-3,-2
1481274034766499,-3,-9,1,5,5,3,2,0
1481274034766499,-3,-5,-3,1,-7,-4,-1,-3
1481274034775094,5,21,4,-4,-10,-5,-2,1
1481274034775094,-4,-14,-3,1,4,3,4,2
1481274034782021,-2,-3,-5,-3,3,18,-4,0
1481274034782021,-2,-2,-3,-2,3,7,-5,-4
1481274034790087,1,-1,-3,-9,-9,-7,-5,0
1481274034790087,0,10,4,4,-8,-17,4,2
1481274034804093,-1,2,0,0,-3,-31,-7,-1
1481274034804093,-1,0,-2,-1,30,-18,-2,-1
1481274034820093,-1,0,-1,3,0,-2,1,-3
1481274034820093,-2,0,0,1,-7,6,-1,-3
1481274034826114,-1,-2,-4,-8,-3,3,-1,-1
1481274034826114,0,4,1,4,-1,8,1,0
1481274034836023,-3,-6,1,8,5,11,4,-1
1481274034836023,1,2,-4,-5,-1,-5,-3,-1
1481274034850094,1,4,3,1,1,-4,-2,2
1481274034850094,-1,-1,-4,-4,-10,-4,2,1
1481274034852024,1,6,3,3,-4,-2,-2,0
1481274034852024,-2,-15,-1,4,0,-1,-5,-4
1481274034864032,-1,-1,-5,-11,-11,0,-2,-3
1481274034864032,0,-3,-2,-1,0,-1,-3,0
1481274034873071,-4,-2,-1,1,-6,-6,-5,-3
1481274034873071,1,2,-1,-4,-16,1,0,0
1481274034886142,-5,-7,-3,-1,-4,-5,-1,-1
1481274034886142,-4,-10,-1,4,32,5,2,-2
1481274034895091,-4,-5,-4,-9,-11,-1,-1,-1
1481274034895091,0,4,-1,-2,4,3,-5,-1
1481274034910079,-1,1,3,8,6,0,0,-1
1481274034910079,-2,1,-4,-5,-15,-6,1,-1
1481274034912073,-2,-4,-1,-1,-7,-2,0,-1
1481274034912073,2,5,2,6,12,3,0,0
1481274034924171,-1,1,2,7,0,0,-2,-2
1481274034924171,1,3,1,-5,14,-5,-2,0
1481274034933073,-4,-9,-7,-15,-9,-4,-2,0
1481274034933073,-1,-1,-5,-5,-2,-1,-1,-1
1481274034946147,1,0,4,-1,3,0,3,0
1481274034946147,1,6,3,8,-3,-1,0,-2
1481274034955582,0,0,-3,-7,-5,-4,-2,0
1481274034955582,-4,-7,1,7,43,9,1,2
1481274034970084,-1,3,-4,-6,-2,-4,0,-1
1481274034970084,0,0,1,-1,-9,-2,1,-2
1481274034972154,2,1,2,5,-1,1,1,-2
1481274034972154,0,3,1,2,-5,7,6,-2
1481274034984155,-1,-5,0,0,4,2,1,0
1481274034984155,0,1,-2,-5,-14,-3,-5,2
1481274034993154,-1,1,-4,-8,-23,-4,-6,0
1481274034993154,1,-1,1,3,23,5,2,-1
1481274035006231,1,-3,-2,-5,-1,-5,-2,0
1481274035006231,-1,4,0,-1,-11,0,-4,-2
1481274035015160,0,6,1,2,1,-5,2,3
1481274035015160,-4,-16,-3,1,-7,-3,-2,-1
1481274035030157,-3,0,-1,-5,-2,-2,-1,-2
1481274035030157,-2,-8,-4,-9,-12,-9,-7,-4
1481274035032157,1,13,5,2,14,-2,0,-1
1481274035032157,-4,-9,-10,-13,-23,-9,-8,-3
1481274035044159,-1,0,-3,-3,-26,-2,-2,0
1481274035044159,-2,-4,-3,0,2,5,0,-2
1481274035053163,0,-4,-1,4,39,4,2,-2
1481274035053163,0,2,-1,-12,-26,-10,-6,-2
1481274035066673,3,2,2,-1,-15,3,7,2
1481274035066673,-1,0,-2,0,7,1,0,0
1481274035075263,-3,-6,-1,-1,-5,2,-2,-3
1481274035075263,-2,3,1,5,3,2,0,-1
1481274035090264,-3,0,-1,0,21,-2,-3,-2
1481274035090264,2,2,0,-2,-18,-1,4,3
1481274035096264,0,-4,-3,4,1,0,3,1
1481274035096264,2,2,0,2,-19,0,1,0
1481274035104336,1,-6,3,2,25,-1,-4,0
1481274035104336,-1,-1,0,9,10,3,0,1
1481274035113263,-6,-17,-2,-2,-18,0,-1,-3
1481274035113263,-3,-1,-2,-6,-7,-10,-5,-3
1481274035126263,1,0,-1,0,-8,-2,-1,-1
1481274035126263,2,3,-1,-4,17,-1,1,0
1481274035135267,1,2,-3,-4,-6,0,2,2
1481274035135267,0,10,-1,2,10,1,0,-2
1481274035150287,-4,-14,-1,0,-27,-2,-2,-1
1481274035150287,0,4,2,0,19,-2,-4,-4
1481274035152265,0,-2,-2,-1,-8,2,0,0
1481274035152265,6,6,1,-4,-9,-3,2,3
1481274035164348,0,4,-2,-3,13,-1,-2,-1
1481274035164348,-2,-8,-4,-6,-26,1,1,-1
1481274035173462,0,2,1,0,1,-8,-5,-2
1481274035173462,-4,-2,1,4,11,4,1,-2
1481274035186548,-2,1,-3,-1,5,2,-3,-2
1481274035186548,-4,2,3,1,-15,0,1,-1
1481274035195463,0,-10,-3,2,9,2,0,-3
1481274035195463,1,0,-1,-2,-12,-4,-7,1
1481274035210464,1,-7,0,-1,-17,-8,-2,-3
1481274035210464,4,18,4,5,54,5,0,-2
1481274035211464,-6,-15,-3,-4,-11,2,-4,-2
1481274035211464,-3,-6,-3,2,5,-1,4,2
1481274035224464,1,14,0,1,4,-1,-2,1
1481274035224464,-3,-26,-1,1,-16,-4,-1,-1
1481274035233465,-1,1,2,4,4,-1,-2,-1
1481274035233465,-1,-2,1,1,7,-4,-2,0
1481274035246466,0,2,1,0,3,-4,-4,-2
1481274035246466,-1,-8,-5,-2,-38,-17,4,2
1481274035255465,1,5,-1,0,26,-9,0,1
1481274035255465,0,3,1,-2,-19,-4,-4,-1
1481274035270474,1,8,2,5,21,8,4,1
1481274035270474,-3,5,2,6,2,11,2,-1
1481274035271981,-6,-7,-5,-5,-13,11,-2,-1
1481274035271981,0,-7,-2,-7,-2,15,0,0
1481274035284028,-1,-6,3,11,8,5,1,0
1481274035284028,6,21,1,-1,9,2,-3,-1
1481274035292983,1,-3,-3,-1,-1,-7,1,0
1481274035292983,1,-1,-1,2,-3,-6,1,-3
1481274035306990,-4,-6,-3,-5,-5,-12,1,-3
1481274035306990,0,2,-2,-2,-26,-8,-2,-1
1481274035315058,-1,4,5,3,16,-5,-1,0
1481274035315058,2,9,1,-1,-1,6,1,1
1481274035330058,-3,-9,-8,-1,18,-1,0,0
1481274035330058,0,5,5,-1,-17,-1,-1,0
1481274035331985,3,16,3,-3,-10,4,3,2
1481274035331985,-5,-10,-2,8,17,-1,2,-2
1481274035343988,-2,-3,-1,-5,-5,2,-3,-2
1481274035343988,-1,-11,-6,-7,4,-1,-3,-1
1481274035352988,-2,2,-2,-1,-9,-1,-2,-1
1481274035352988,5,14,7,1,2,-3,5,2
1481274035366567,-2,-6,-5,-5,-17,0,-3,-2
1481274035366567,0,-1,-1,0,4,-6,-1,-2
1481274035375772,2,0,-1,0,-1,7,3,1
1481274035375772,-3,-4,-2,-2,0,1,-1,-2
1481274035390775,1,4,1,-2,-5,0,-2,0
1481274035390775,-3,-13,-7,-4,0,7,2,0
1481274035391771,-1,0,1,2,1,-8,-6,-5
1481274035391771,-4,-9,1,3,11,4,1,-1
1481274035403773,-4,-3,-5,-2,-31,-12,2,-1
1481274035403773,2,3,0,-1,16,5,-1,-1
1481274035412772,-1,6,6,5,15,2,-3,2
1481274035412772,1,-1,-7,-5,-14,-4,-1,-1
1481274035426774,0,-11,2,2,1,6,-2,-3
1481274035426774,1,0,0,0,-25,-13,-1,-2
1481274035435775,0,8,-2,-3,12,4,-5,-2
1481274035435775,-4,-11,-4,2,4,0,-6,-4
1481274035450784,1,7,0,-4,0,-2,4,0
1481274035450784,-3,-8,-1,-2,5,-1,-5,0
1481274035451775,-1,-2,-3,-5,-16,-10,5,0
1481274035451775,-1,3,-1,-4,-5,3,3,2
1481274035464357,0,-1,-2,1,5,1,2,0
1481274035464357,-2,3,-2,0,7,-1,-4,-4
1481274035472878,-1,-4,-3,-7,-16,4,-2,-2
1481274035472878,2,-2,-4,-5,-2,-3,-8,-2
1481274035486894,0,6,1,0,0,1,0,0
1481274035486894,1,3,0,-1,9,0,-1,-1
1481274035494928,-3,-13,-1,-2,-46,1,2,2
1481274035494928,0,1,-6,0,3,-11,-3,-2
1481274035509885,2,3,1,-1,11,5,-2,-1
1481274035509885,1,6,3,2,-7,1,1,1
1481274035511880,-5,-15,-9,-9,-4,-14,-6,-1
1481274035511880,3,15,6,1,-2,0,4,1
1481274035523951,-7,-20,-2,2,-19,5,3,1
1481274035523951,0,7,1,2,13,1,1,1
1481274035532883,-3,-4,1,2,3,0,1,-3
1481274035532883,-2,-2,1,-2,-4,-10,-6,-2
1481274035546891,4,9,0,-1,6,-5,-2,-2
1481274035546891,-4,-7,-3,-3,-5,5,-3,0
1481274035555882,2,-4,-1,5,11,-5,4,2
1481274035555882,0,0,-2,3,-2,-10,3,0
1481274035569890,-2,3,-1,-1,-6,-4,-2,1
1481274035569890,-1,-3,-6,-7,18,5,2,0
1481274035576055,-3,-13,-2,0,-8,12,2,-3
1481274035576055,-1,6,1,-3,-1,10,-2,-1
1481274035584032,4,18,1,4,12,7,2,1
1481274035584032,-7,-21,1,1,-1,-8,-4,-6
1481274035592962,-3,-4,-3,-3,4,2,-5,-4
1481274035592962,1,-5,1,2,3,3,-2,0
1481274035606996,3,22,0,-6,-7,-6,-7,-1
1481274035606996,-4,-19,-10,-5,-10,13,0,-2
1481274035615962,4,7,3,8,39,-8,-3,-1
1481274035615962,-4,-14,-6,-6,-21,-2,0,-2
1481274035630035,1,5,3,4,12,3,1,-2
1481274035630035,2,5,2,-1,-2,2,2,1
1481274035636968,-1,4,3,1,-14,-7,-2,0
1481274035636968,-2,-1,-1,3,38,11,3,-2
1481274035643965,-4,-11,-3,-7,-15,-12,0,-1
1481274035643965,-2,0,-2,0,-5,0,2,1
1481274035652964,1,0,0,-3,-4,-9,2,1
1481274035652964,-1,9,0,-2,-1,9,-5,-1
1481274035666973,0,-11,-2,0,-2,-27,-3,0
1481274035666973,-1,1,1,7,6,-4,1,-2
1481274035675078,0,5,14,-1,-8,6,-1,2
1481274035675078,4,6,-14,-3,-1,-2,4,1
1481274035690059,1,-2,-3,-14,3,9,0,-1
1481274035690059,0,-2,2,4,-3,2,-1,-1
1481274035697036,-13,-37,-18,-6,-6,0,-2,-4
1481274035697036,-1,-3,8,3,-4,-14,2,2
1481274035704076,2,17,3,5,2,12,0,0
1481274035704076,-1,-10,-6,1,-7,-10,0,-2
1481274035713006,5,18,3,2,8,25,7,-2
1481274035713006,-2,-13,-4,-6,-10,-8,3,0
1481274035727007,0,-3,-2,4,3,11,-4,-4
1481274035727007,1,10,5,-3,1,0,-1,2
1481274035736007,0,2,0,7,-23,-8,-2,1
1481274035736007,-2,9,2,-1,18,11,-3,-1
1481274035750010,-6,-13,-4,-1,9,-1,-1,0
1481274035750010,-1,1,-3,-5,-31,-9,-3,0
1481274035756589,1,-2,-2,-6,25,8,6,-1
1481274035756589,3,7,-2,1,-7,-3,-1,0
1481274035773208,-2,-15,1,3,-12,-1,3,1
1481274035773208,-4,-2,-1,13,20,11,-1,-2
1481274035774113,2,4,-2,-7,-13,-16,-7,-1
1481274035774113,7,19,8,2,-8,3,1,0
1481274035786209,-11,-18,-6,-5,3,4,3,-1
1481274035786209,1,-17,-4,-5,-25,-7,-10,-4
1481274035795119,-3,-1,-5,8,63,8,10,1
1481274035795119,-1,5,3,1,-16,6,-4,-3
1481274035810115,0,-2,-2,-3,-15,-2,-3,-4
1481274035810115,1,14,2,1,2,-9,2,3
1481274035817119,-4,-9,-4,-10,-22,-10,-9,-4
1481274035817119,0,-7,-1,0,3,8,3,0
1481274035833117,3,5,-1,0,11,-6,-8,-1
1481274035833117,-4,2,-4,-7,-1,0,2,0
1481274035834116,1,3,2,4,-2,-4,-7,-4
1481274035834116,-6,-10,-4,-4,-12,-5,3,-2
1481274035846117,0,4,2,4,-1,7,-1,-1
1481274035846117,-1,-4,-1,-16,12,-15,1,-2
1481274035855118,0,3,-2,-8,-19,7,2,5
1481274035855118,-4,-6,0,-1,-4,-21,-12,-4
1481274035869629,-2,1,0,5,36,4,-1,1
1481274035869629,2,3,0,1,-8,11,0,0
1481274035876636,-2,5,-3,-8,25,-1,2,0
1481274035876636,-3,-6,-1,6,7,-2,3,-2
1481274035892636,1,0,0,1,-9,-7,8,4
1481274035892636,-2,-2,-3,0,1,-5,-4,-4
1481274035894636,2,2,1,3,-3,-6,-6,-2
1481274035894636,7,11,0,-2,-1,-3,-1,0
1481274035906715,-12,-15,-2,-2,3,-2,-4,0
1481274035906715,-2,-2,3,7,4,0,-1,-1
1481274035915638,1,0,-1,-2,-21,-1,-3,-1
1481274035915638,-3,-7,-2,-4,2,-6,-4,-3
1481274035929638,7,16,4,-3,-11,-1,4,-1
1481274035929638,-1,1,-2,-10,-2,-2,0,0
1481274035943638,-3,-7,0,0,-2,1,3,-1
1481274035943638,-3,-1,1,1,-8,3,0,1
1481274035952710,0,-1,-2,1,-2,-3,-3,-2
1481274035952710,-1,1,-1,-1,3,2,-1,-1
1481274035954639,-1,5,2,10,-7,5,5,-3
1481274035954639,-3,-8,-4,-7,-10,3,4,2
1481274035966649,0,-4,-2,-3,23,3,0,-4
1481274035966649,1,0,1,-3,-23,-4,-1,-1
1481274035975249,-2,-1,-1,3,-8,-9,-4,0
1481274035975249,-2,-5,-1,4,-8,29,2,-1
1481274035989252,-5,-8,-9,-19,-22,-35,-8,-1
1481274035989252,0,5,2,5,6,11,3,1
1481274035998250,5,3,2,-1,-3,-4,-6,-1
1481274035998250,-1,13,-1,0,6,-6,4,2
1481274036013256,-7,-24,-4,7,-7,9,1,-4
1481274036013256,1,3,0,-18,10,-3,-5,0
1481274036014251,-3,-6,-10,-15,-20,-9,-2,-1
1481274036014251,3,2,2,9,9,-4,-5,-2
1481274036026255,1,9,1,3,4,6,-8,-4
1481274036026255,-4,-3,0,4,-5,-14,3,0
1481274036035268,-1,3,0,1,7,12,-5,-4
1481274036035268,-1,-6,-3,-6,-1,-5,-1,0
1481274036049254,-1,2,-1,0,-4,-4,-1,-2
1481274036049254,0,-6,-2,-1,-15,5,-1,-3
1481274036058335,3,3,3,4,33,-2,-2,1
1481274036058335,-2,-12,-12,-25,-6,-1,2,-1
1481274036073361,-1,1,5,2,-14,3,-2,0
1481274036073361,-1,4,0,13,14,3,3,-1
1481274036074359,-1,-1,2,-11,-36,-27,-4,1
1481274036074359,-2,-6,-3,-7,33,7,-3,-4
1481274036086430,3,5,-1,6,-3,13,3,2
1481274036086430,0,0,3,12,9,3,-2,-1
1481274036095363,-4,-4,-13,-37,-11,-3,-8,-3
1481274036095363,-2,-3,6,11,-6,-4,-2,1
1481274036109363,1,5,1,4,-1,6,5,1
1481274036109363,0,-1,-5,1,9,1,-1,2
1481274036118362,-1,-2,4,9,-3,-3,-3,-2
1481274036118362,-1,-2,-2,-2,-7,-5,5,2
1481274036132434,1,-1,-2,5,12,-2,2,1
1481274036132434,-2,-1,1,-1,-9,-7,-6,-2
1481274036134362,0,-1,0,3,3,14,5,1
1481274036134362,-1,0,1,5,4,-23,-2,0
1481274036146366,0,1,-3,-11,-8,14,1,1
1481274036146366,-2,-4,-3,-8,2,2,-1,-2
1481274036155364,0,0,1,15,-2,-3,-1,-1
1481274036155364,-1,-2,2,8,-1,-2,-1,-2
1481274036169404,-1,-2,-5,-13,-7,-6,3,-2
1481274036169404,1,2,-1,0,9,15,6,0
1481274036178391,0,-1,-5,-16,-8,-33,1,0
1481274036178391,-2,0,5,13,-8,5,-5,-1
1481274036192463,-2,-2,1,12,10,-11,2,1
1481274036192463,-2,-2,3,4,-2,3,-5,-1
1481274036194393,-2,1,-3,0,4,11,7,2
1481274036194393,-1,-2,0,-15,0,-4,1,0
1481274036206392,-2,0,6,14,-5,-16,-3,-4
1481274036206392,0,-3,-6,-16,-6,-8,-4,1
1481274036215394,-1,-2,0,10,7,15,-1,-1
1481274036215394,0,1,-3,-7,-5,-3,-4,1
1481274036229394,-1,0,0,2,-2,5,0,-1
1481274036229394,1,-1,2,4,2,-4,-1,0
1481274036238394,-3,-5,0,-4,-3,2,5,0
1481274036238394,-3,-2,-3,-1,2,6,0,-1
1481274036260482,0,0,-3,-15,3,5,-4,-2
1481274036260482,-2,0,-3,0,-1,-5,1,0
1481274036261983,0,0,-1,5,-7,5,-2,0
1481274036261983,-1,-2,3,13,20,0,-4,-2
1481274036266983,0,-2,0,-3,0,7,1,-1
1481274036266983,-1,-2,-6,-18,-6,-9,-1,-1
1481274036275060,0,1,0,6,27,-6,2,-2
1481274036275060,-1,-4,-5,-16,-5,-13,-7,-2
1481274036288998,0,0,0,4,-4,6,2,5
1481274036288998,-2,-1,2,13,6,1,-3,0
1481274036297988,-1,-1,3,-5,-8,-1,1,0
1481274036297988,0,-3,-3,1,-4,3,5,0
1481274036313008,-1,-2,-1,-3,-8,-9,-5,-1
1481274036313008,-2,0,-1,7,-9,2,9,0
1481274036313990,1,0,6,14,14,3,-1,0
1481274036313990,2,2,1,-2,-8,9,-4,-2
1481274036325994,-1,-2,1,11,4,11,4,-2
1481274036325994,-3,-4,-11,-33,-24,-17,-2,-2
1481274036335061,0,1,-2,5,-1,9,-2,-2
1481274036335061,0,-3,-1,-3,1,4,1,-1
1481274036348993,1,-1,0,2,-3,-17,-2,1
1481274036348993,-2,0,2,5,1,2,-1,-2
1481274036357996,-2,-4,-4,-3,-2,8,-3,-2
1481274036357996,0,-2,5,13,-13,-5,-8,-1
1481274036372587,0,-3,-10,-12,-11,-5,-1,-2
1481274036372587,1,1,1,7,7,0,-2,-2
1481274036378603,0,1,2,-5,-9,-1,-3,-1
1481274036378603,-1,0,-3,7,1,6,1,-1
1481274036386650,0,0,2,3,0,1,2,2
1481274036386650,-1,-3,-6,-5,0,-6,-7,-3
1481274036395581,-1,-1,1,4,1,4,4,1
1481274036395581,-2,-2,-6,-30,-10,-2,6,-2
1481274036409584,-2,0,-2,-4,-1,-4,-4,-3
1481274036409584,3,2,1,16,13,41,1,2
1481274036425580,1,-3,-2,-9,-38,-50,-7,-3
1481274036425580,-2,-2,-1,0,19,-1,1,0
1481274036432730,-2,0,0,-4,-5,5,6,-2
1481274036432730,2,0,4,9,4,23,-2,-3
1481274036434581,1,0,1,-6,-1,-3,0,-1
1481274036434581,1,0,0,1,-11,-9,6,2
1481274036446583,-2,-1,-1,-4,17,-4,-6,-2
1481274036446583,-1,0,1,1,1,-9,1,1
1481274036455584,-2,-3,-2,2,15,12,1,-2
1481274036455584,-2,-5,-1,1,-21,-4,-1,0
1481274036469094,0,-1,-4,4,9,1,-3,-1
1481274036469094,0,0,-1,3,-1,-14,-1,-2
1481274036477784,-1,0,-2,-11,-9,7,1,1
1481274036477784,0,-1,6,10,18,15,-4,-4
1481274036492789,0,-1,1,10,-15,-10,-5,-1
1481274036492789,-2,-3,-4,-27,-3,-8,-6,-2
1481274036494785,0,2,-2,9,2,1,-2,0
1481274036494785,4,4,1,8,-2,-50,5,2
1481274036506856,-3,-3,0,-9,-13,13,-8,-5
1481274036506856,1,0,3,10,14,-14,1,1
1481274036515788,-3,-2,-2,4,5,2,-1,-1
1481274036515788,-2,0,-2,-3,0,18,-3,-2
1481274036537789,1,2,4,7,3,-3,0,0
1481274036537789,-2,-2,-9,-18,-15,-5,1,-1
1481274036539788,0,1,1,0,10,14,-1,-1
1481274036539788,-1,0,-4,-3,5,5,-4,-3
1481274036551865,1,-1,-4,-7,-3,-4,1,-1
1481274036551865,-2,-2,5,3,-7,6,-1,0
1481274036559372,0,-1,-2,1,-1,-3,2,1
1481274036559372,-3,-1,-3,-5,-8,3,-3,2
1481274036566872,-3,-1,0,1,11,10,0,1
1481274036566872,0,0,5,7,-14,-20,6,1
1481274036575376,0,0,-9,-18,0,-1,-5,-2
1481274036575376,1,-2,4,7,-6,24,2,2
1481274036589375,1,0,7,13,0,-14,-1,0
1481274036589375,0,-3,-9,-21,-1,-6,-2,-1
1481274036598377,-1,-2,1,3,-4,10,-2,-2
1481274036598377,-2,-2,-2,-3,2,10,-2,-3
1481274036612377,-1,1,-1,3,16,12,3,-1
1481274036612377,-4,-1,-1,1,-11,-5,-3,-2
1481274036619380,-3,-1,0,3,8,-3,-4,-2
1481274036619380,-2,0,-4,0,3,-8,0,-1
1481274036626379,-1,-2,-2,-21,-14,6,-1,-1
1481274036626379,2,1,1,10,9,-4,3,0
1481274036635378,-2,-1,-3,-5,-3,1,0,0
1481274036635378,-3,-2,1,4,-4,1,-2,0
1481274036649386,-1,0,-2,-11,1,-7,0,-1
1481274036649386,-3,0,0,4,-4,6,-1,1
1481274036658455,-1,-1,-1,8,-4,-8,-1,-1
1481274036658455,2,-3,-2,-3,2,5,0,0
1481274036672469,-1,0,-3,-2,-22,-55,7,1
1481274036672469,1,0,5,8,7,-2,-5,-1
1481274036679492,-1,-3,2,-10,3,9,2,1
1481274036679492,-2,-3,-21,-24,-26,-16,-5,-2
1481274036702536,-1,-2,-1,0,6,12,-1,-2
1481274036702536,1,0,-1,2,-3,4,-1,-2
1481274036704465,-1,2,8,22,8,8,1,-1
1481274036704465,2,1,5,-12,-28,-43,-1,1
1481274036709470,0,-2,-4,-8,-14,8,3,-1
1481274036709470,-3,-2,-3,6,0,1,1,-1
1481274036717539,-2,-1,1,-1,-3,10,-6,-4
1481274036717539,-1,-1,-4,-1,12,-2,0,1
1481274036732515,-2,-1,-3,2,3,4,-3,-1
1481274036732515,-3,-1,-2,3,6,-2,6,0
1481274036739508,0,-1,-2,-3,-9,-7,0,-1
1481274036739508,-1,-2,1,0,-7,2,-2,-2
1481274036763065,-1,-2,-1,6,21,-5,-2,0
1481274036763065,-1,-4,-1,-4,2,2,-3,-2
1481274036764564,0,0,-4,-10,-18,-2,3,0
1481274036764564,0,0,3,3,1,13,1,-1
1481274036769065,-1,-2,-2,-1,3,21,-1,1
1481274036769065,-1,0,2,0,-7,-23,-1,2
1481274036778088,0,-2,-3,-6,-7,-10,-3,-2
1481274036778088,-2,-2,1,4,4,2,-3,-3
1481274036792162,0,1,2,13,0,-2,0,-1
1481274036792162,0,-2,-3,-16,4,3,1,0
1481274036799151,1,-1,1,19,-2,-7,0,3
1481274036799151,0,0,2,-6,2,8,2,-1
1481274036816213,0,0,-1,0,19,5,-2,0
1481274036816213,-2,0,2,4,-8,38,3,-1
1481274036817091,1,0,2,1,-3,-32,-10,-5
1481274036817091,-1,-3,-6,-1,3,4,0,0
1481274036829093,-1,0,2,-7,-15,-4,-3,-1
1481274036829093,-1,-1,1,2,7,6,1,0
1481274036838092,0,0,-1,1,15,8,4,1
1481274036838092,-3,-1,4,15,8,11,-1,-2
1481274036852198,-1,-1,-4,-17,-26,-49,-3,0
1481274036852198,2,0,0,9,-2,3,-2,-1
1481274036866673,-4,-1,-6,-17,-8,4,2,0
1481274036866673,-2,-1,1,3,4,-4,0,-1
1481274036875270,-1,-2,-1,-1,-7,11,8,1
1481274036875270,-1,-1,0,2,8,-7,-8,-2
1481274036877198,2,0,0,8,3,2,2,1
1481274036877198,0,1,1,-8,-10,-5,1,-1
1481274036898262,0,0,-2,-6,9,3,-5,-2
1481274036898262,1,-2,-1,-1,-6,-2,-1,-2
1481274036899197,-2,-2,-1,2,13,16,0,-1
1481274036899197,4,1,2,5,-9,-23,3,3
1481274036912272,-1,-1,1,-5,-12,2,-3,1
1481274036912272,0,-1,-4,1,11,-3,-3,1
1481274036919201,-2,-2,0,-5,1,-3,-2,-2
1481274036919201,1,1,4,8,-5,4,-1,-3
1481274036935271,-2,-1,-4,-9,24,1,0,-4
1481274036935271,-4,-1,0,-2,-13,4,3,-1
1481274036941271,-2,-2,-1,2,-5,-9,2,-1
1481274036941271,-2,-1,2,-1,16,16,-6,-2
1481274036949304,0,-2,-1,8,-7,-1,-2,0
1481274036949304,-1,-1,0,-8,-7,-9,-1,-4
1481274036958210,0,1,0,-2,4,2,0,1
1481274036958210,-4,-2,-2,1,0,1,-2,-2
1481274036980230,-1,0,3,6,-2,4,-2,-3
1481274036980230,1,-1,2,5,8,-5,-2,-1
1481274036982230,1,-3,-8,-17,-7,-4,-3,-2
1481274036982230,1,1,-2,1,3,-2,1,1
1481274036995337,-1,-2,-4,0,-9,4,-2,1
1481274036995337,0,2,1,3,3,-6,-2,1
1481274036997231,0,-2,0,5,0,7,0,-2
1481274036997231,1,0,-3,-15,2,-13,-6,-2
1481274037018242,-2,0,-2,9,-12,5,-1,-2
1481274037018242,-1,-2,-2,-4,-7,-3,0,-2
1481274037019232,-2,0,0,0,-8,-5,-1,-1
1481274037019232,0,-1,-4,-2,-6,3,-2,0
1481274037040239,-1,-4,0,-5,-6,-1,-1,-1
1481274037040239,1,2,0,-1,-2,8,0,0
1481274037042237,0,0,-4,5,-6,-50,2,2
1481274037042237,-2,-2,0,3,1,3,1,-1
1481274037055304,2,-1,1,-5,2,2,2,1
1481274037055304,-1,-2,-4,1,1,-3,0,-1
1481274037057234,-1,-1,-4,-23,10,21,1,-1
1481274037057234,-1,-1,1,5,1,-3,-1,0
1481274037069244,0,-2,-2,-3,4,-7,-1,0
1481274037069244,-1,-1,1,3,-11,4,-2,-2
1481274037078291,1,-1,3,4,6,3,-2,-3
1481274037078291,-1,-3,-3,-8,-8,-8,0,-2
1481274037092489,-2,-1,-6,2,0,2,1,-2
1481274037092489,-1,-1,-1,-9,-15,-5,-2,1
1481274037099365,0,-1,0,1,2,4,-2,-1
1481274037099365,0,0,0,9,3,-3,-3,-3
1481274037115297,0,-2,2,4,6,21,0,0
1481274037115297,-1,1,-3,-12,5,-8,2,0
1481274037117294,-1,1,0,5,-9,-1,-2,-1
1481274037117294,0,-1,-1,-4,7,1,3,-2
1481274037129368,-3,-1,0,0,-4,-16,-2,-2
1481274037129368,1,-1,-2,1,3,-5,-1,1
1481274037145295,-2,-1,1,-2,-3,1,-4,-1
1481274037145295,-3,-2,-3,5,23,4,-3,-1
1481274037152408,2,3,0,0,-17,1,0,-2
1481274037152408,0,-3,1,6,13,32,-1,-1
1481274037175455,-2,1,0,5,-26,-50,-5,0
1481274037175455,-1,1,-4,-19,8,6,4,2
1481274037176490,-1,0,4,7,-2,-7,-2,0
1481274037176490,-2,-3,-10,-12,5,10,1,0
1481274037178456,0,-1,2,13,5,14,-1,-2
1481274037178456,0,-1,0,-6,-10,3,0,0
1481274037188458,-3,-3,-2,-3,8,-3,-1,-1
1481274037188458,-3,-1,2,0,-8,-13,-1,-1
1481274037198457,-1,2,0,7,8,17,2,-1
1481274037198457,0,1,-2,1,-14,-25,-4,1
1481274037220529,-3,-2,-7,-14,22,18,2,-2
1481274037220529,-1,-1,2,3,-11,-15,-5,-3
1481274037221459,-1,-1,-4,-5,-3,3,2,1
1481274037221459,0,-2,0,5,6,17,1,0
1481274037235540,2,0,-2,1,-5,-1,-3,1
1481274037235540,0,0,-2,-2,15,-8,0,-2
1481274037237462,0,0,-1,-6,6,4,-1,0
1481274037237462,1,-1,2,0,-19,16,-1,-1
1481274037258040,-3,-1,2,8,11,-15,0,-1
1481274037258040,1,0,-3,-7,-5,3,-2,-1
1481274037259540,0,-2,3,1,-14,-11,3,0
1481274037259540,0,0,-4,-2,5,2,1,-1
1481274037272542,-1,-3,-1,-9,-15,-2,-3,1
1481274037272542,-1,-2,0,10,26,0,-2,-3
1481274037278710,-3,-3,-2,-3,0,14,-1,-2
1481274037278710,-1,-1,-1,-3,-1,-14,-1,-3
1481274037295649,0,1,-2,1,-7,2,-1,-1
1481274037295649,0,0,2,4,-5,-19,2,2
1481274037296647,-3,0,3,-1,1,3,0,-4
1481274037296647,-3,-2,-6,-8,17,-1,1,-1
1481274037308753,-2,-2,-10,-15,-9,1,0,-1
1481274037308753,-1,1,3,7,4,-1,-3,1
1481274037317656,0,-1,-7,1,7,6,6,4
1481274037317656,-1,1,5,8,-5,-6,2,0
1481274037332649,1,-1,0,-1,-5,-5,-3,1
1481274037332649,-1,-3,-3,-4,-16,-1,4,-1
1481274037340650,1,-1,0,0,6,-8,-5,-1
1481274037340650,0,0,0,-1,-6,5,-1,-2
1481274037355689,-1,-1,0,0,-2,-1,1,-1
1481274037355689,-1,0,0,2,13,0,-2,-2
1481274037356655,-1,-1,-1,-2,0,5,-2,-1
1481274037356655,-2,-2,-2,-1,-7,-5,2,2
1481274037369164,1,0,2,8,11,5,3,0
1481274037369164,-1,1,3,-6,-17,-5,-1,0
1481274037377696,-1,-1,-18,-17,17,5,-10,-3
1481274037377696,0,0,4,13,-10,-10,-5,-4
1481274037391765,1,1,1,-9,17,1,0,-2
1481274037391765,-1,-2,1,8,-4,13,-1,-1
1481274037398704,-1,0,3,1,-11,-24,3,0
1481274037398704,-1,-2,-6,-3,0,8,-1,0
1481274037422698,-1,0,1,9,6,2,-2,0
1481274037422698,-2,-4,-4,-15,-22,-9,0,-1
1481274037424696,2,1,3,1,-7,2,1,0
1481274037424696,0,0,-2,-6,8,-1,-5,0
1481274037428782,-1,-1,-1,0,-8,-14,-3,-1
1481274037428782,-1,-1,-2,-4,1,-3,-2,-2
1481274037437700,-3,-4,1,2,-1,8,-2,-4
1481274037437700,-1,0,5,3,-10,-12,-3,-2
1481274037452702,-1,0,-1,2,22,10,0,-1
1481274037452702,-3,-1,-2,-4,-13,-7,-1,-3
1481274037459255,-2,0,0,3,-2,-3,-2,1
1481274037459255,-1,-3,1,0,-5,-1,1,0
1481274037482950,-1,-1,1,-1,-2,-2,0,-3
1481274037482950,1,2,2,14,-1,-2,-3,-1
1481274037483932,-1,-2,-6,-22,0,8,3,-1
1481274037483932,1,-3,-8,-3,0,-11,1,-1
1481274037498035,-2,-1,0,2,-9,-4,0,1
1481274037498035,-1,-1,2,1,16,3,1,0
1481274037499933,2,0,-1,-5,-4,-1,-3,2
1481274037499933,-1,-2,1,8,5,6,3,1
1481274037511951,-1,1,-3,-8,-8,-5,-7,0
1481274037511951,-2,2,0,2,9,7,0,-2
1481274037519004,0,1,3,4,1,-28,-1,-2
1481274037519004,0,2,-3,1,-7,6,0,-3
1481274037535005,-1,-2,0,-2,-15,1,-1,0
1481274037535005,1,-5,-4,-3,1,-4,6,0
1481274037541938,0,-1,0,1,0,6,-1,-1
1481274037541938,2,0,2,-2,-1,3,-3,-2
1481274037549020,0,-1,0,-4,-11,-1,2,-1
1481274037549020,-1,1,-2,1,14,1,-2,-1
1481274037557939,-1,0,0,2,-4,5,2,1
1481274037557939,-2,-4,-3,-2,-1,-2,-3,1
1481274037572951,1,1,4,4,4,-8,-4,-3
1481274037572951,0,-1,-1,-5,-13,9,-1,0
1481274037580128,-4,-1,-1,5,-1,-4,0,-1
1481274037580128,-2,-2,-6,-14,0,-3,-3,-2
1481274037595087,1,1,3,4,0,0,2,0
1481274037595087,0,0,-2,-5,-10,-1,-2,0
1481274037601156,1,-2,1,3,-9,17,-1,1
1481274037601156,-1,-2,-2,0,10,-6,0,0
1481274037609089,0,0,-1,-1,2,4,2,-2
1481274037609089,0,-1,-1,-1,-12,-5,-4,-1
1481274037633090,-1,-2,-1,-7,-9,9,0,-3
1481274037633090,-1,-1,-1,1,5,1,10,2
1481274037633090,-1,1,3,13,5,-2,-4,-1
1481274037633090,-2,-1,-6,-13,-5,-1,-4,1
1481274037646086,0,-2,0,1,8,-2,-4,-2
1481274037646086,-1,-2,2,3,2,7,-2,0
1481274037655090,1,-1,-1,4,-8,-8,-2,-1
1481274037655090,-1,1,-2,-2,-2,-4,-1,-2
1481274037661669,-2,-2,-2,-3,-2,-11,-2,-1
1481274037661669,-1,0,-2,1,-7,-1,-2,-2
1481274037678271,1,-1,-1,-6,4,10,-2,0
1481274037678271,-4,0,0,7,41,-5,-1,-1
1481274037679199,1,0,1,0,-13,-4,2,1
1481274037679199,0,0,2,6,5,7,-1,0
1481274037700204,-2,-3,-3,-8,-3,20,2,-2
1481274037700204,1,-1,4,2,-17,-24,-1,-1
1481274037702201,-2,-3,-10,-6,15,-1,-2,-1
1481274037702201,-2,-1,0,1,-3,-6,0,-2
1481274037715297,-2,-2,-5,-10,-1,4,0,0
1481274037715297,0,-2,-2,0,11,1,0,-1
1481274037723201,0,0,4,1,-10,16,0,1
1481274037723201,-1,0,-1,-6,-10,-4,-3,-3
1481274037738311,-4,-1,-3,3,4,-11,0,0
1481274037738311,0,-2,0,8,-6,3,-1,-3
1481274037739203,-1,0,-4,-16,27,-8,0,0
1481274037739203,-2,-1,-2,-3,1,10,-2,0
1481274037760765,-2,-2,0,0,-13,-4,2,0
1481274037760765,-1,-1,3,8,-5,4,-2,0
1481274037762261,0,-1,-4,-7,-6,1,-1,2
1481274037762261,-1,0,-1,0,-3,5,-4,-1
1481274037775370,-2,0,0,2,6,-29,-2,-1
1481274037775370,-1,-2,-3,-8,-12,8,1,-2
1481274037781320,0,-1,4,10,1,-2,0,-2
1481274037781320,-1,-2,1,-3,-7,-3,-2,-2
1481274037798304,1,-2,-6,-9,-8,3,1,0
1481274037798304,-2,-2,0,-3,-3,2,2,0
1481274037799302,0,0,0,5,-1,2,1,0
1481274037799302,0,-1,-3,-5,-2,-8,1,-1
1481274037812301,-1,-1,-3,2,-8,18,-3,-1
1481274037812301,-3,0,-3,-4,-6,1,1,-1
1481274037819373,-2,-1,3,4,1,1,-4,-1
1481274037819373,0,-1,-3,0,18,-1,0,1
1481274037834387,0,0,0,-8,-15,-6,1,-2
1481274037834387,-1,-1,3,4,1,1,1,-2
1481274037849400,-1,-1,-5,-5,-8,2,-1,-1
1481274037849400,-1,0,2,4,10,-1,-1,0
1481274037858311,1,0,-2,-1,4,-3,-2,0
1481274037858311,0,0,-4,2,4,2,1,1
1481274037859821,-2,0,-5,1,-1,-10,-2,-3
1481274037859821,0,-1,-1,-3,0,-1,0,-1
1481274037872325,-1,-3,2,0,-15,0,-3,-4
1481274037872325,0,-2,-4,-14,22,7,6,0
1481274037878778,0,0,2,5,-5,6,3,0
1481274037878778,0,-1,-3,-4,-10,-4,-2,-1
1481274037894705,-3,-3,-1,1,8,3,1,-1
1481274037894705,0,-2,-1,-2,-7,-6,-4,-1
1481274037901801,1,-1,1,1,1,-3,-3,-1
1481274037901801,0,1,-1,2,0,8,-2,0
1481274037925700,-2,-1,-2,-1,8,0,-3,0
1481274037925700,-2,0,2,4,-10,-3,-3,-2
1481274037926696,-5,-3,-4,0,1,-5,-4,-3
1481274037926696,-1,-1,-3,-20,-7,-8,-1,-3
1481274037932698,3,2,1,8,1,-5,1,-1
1481274037932698,-1,1,-9,-5,-25,-5,-2,1
1481274037938766,-1,1,6,13,14,4,0,1
1481274037938766,-1,-3,-3,1,2,1,1,-2
1481274037954767,-2,0,0,-5,-4,-1,-2,-1
1481274037954767,0,0,-1,-7,-6,-2,0,0
1481274037961709,1,0,2,2,-13,-6,2,1
1481274037961709,0,-1,1,6,-1,5,-2,-1
1481274037985847,-1,-1,-4,-7,9,-2,-5,0
1481274037985847,0,-1,2,8,-2,-4,-2,-2
1481274037987745,-2,0,0,-3,2,0,-3,0
1481274037987745,-2,0,2,0,3,-4,-1,1
1481274037992746,1,-2,0,6,-10,-5,1,-2
1481274037992746,0,-2,-4,-21,7,7,-1,-3
1481274037998825,0,-1,-2,-3,-3,-4,0,-2
1481274037998825,0,0,1,4,-10,-1,-1,-1
1481274038014812,-2,1,-2,1,4,-1,-1,1
1481274038014812,-1,0,2,8,20,3,-3,0
1481274038021814,-2,0,-2,-4,-8,-3,-3,1
1481274038021814,0,0,0,1,-1,-5,4,0
1481274038037844,-1,-1,0,6,4,1,1,-1
1481274038037844,0,-1,2,6,-11,0,0,0
1481274038039743,1,0,8,-8,12,-2,-1,-2
1481274038039743,0,-1,-5,8,1,2,-3,-1
1481274038051816,-1,0,1,-5,11,3,0,-1
1481274038051816,-2,-1,-3,0,3,1,2,-1
1481274038060808,0,2,5,6,-10,-13,1,1
1481274038060808,-3,-1,3,3,-9,1,-2,-2
1481274038074912,0,0,-9,-18,-1,-1,0,-1
1481274038074912,0,0,1,4,1,-4,-2,0
1481274038088913,-3,-2,-6,-4,-4,4,0,-1
1481274038088913,-1,-3,1,-1,6,-4,-1,0
1481274038097914,-1,-1,-2,0,-4,-5,-5,0
1481274038097914,0,2,3,6,-12,-6,4,1
1481274038099843,0,-3,-13,-20,-4,7,4,1
1481274038099843,0,-2,1,4,22,-5,-2,-1
1481274038111916,1,0,4,3,2,6,-2,0
1481274038111916,-1,-3,-2,-5,-6,-2,-3,-3
1481274038120844,-1,1,3,9,-4,-7,0,-3
1481274038120844,-3,0,-6,-19,-11,-6,-5,-1
1481274038135852,-1,-2,0,6,2,15,5,0
1481274038135852,0,-1,0,-4,2,2,-3,0
1481274038141956,1,-1,0,2,3,3,-2,-2
1481274038141956,1,0,3,3,-17,-5,0,1
1481274038157849,-3,0,-1,-4,4,1,1,-3
1481274038157849,-2,-1,-4,-1,18,-4,-1,0
1481274038159855,-3,-2,-1,-7,-20,-3,-1,-1
1481274038159855,0,0,-1,14,25,10,-2,-3
1481274038180896,2,-2,1,2,-10,-6,-1,0
1481274038180896,1,-1,2,2,-3,-3,1,0
1481274038181894,-2,-2,-4,-1,9,1,-4,0
1481274038181894,-2,-2,2,3,-5,8,-2,0
1481274038202895,-3,2,0,-8,-9,-8,-5,0
1481274038202895,-1,0,0,3,6,-1,-2,0
1481274038204894,0,0,-1,3,-3,0,-1,-2
1481274038204894,-2,-1,-7,-6,-11,-9,1,-2
1481274038218899,0,1,4,14,17,7,1,-2
1481274038218899,-3,-1,-11,-25,-24,-9,-3,-2
1481274038219895,-1,-2,0,-4,-8,-29,-2,3
1481274038219895,-1,-1,0,11,12,-1,2,1
1481274038231900,-1,-4,-9,-9,8,15,1,0
1481274038231900,-2,-2,1,-3,-7,-6,0,-2
1481274038240896,1,0,-3,1,2,10,0,-2
1481274038240896,1,0,1,7,3,-4,-4,-1
1481274038254899,-3,-4,-3,-19,-8,-11,0,0
1481274038254899,-1,-1,0,8,-6,5,-2,-2
1481274038261905,-1,-3,1,-2,14,9,-2,-2
1481274038261905,0,0,-2,-11,-27,-19,-4,-3
1481274038277931,-1,1,2,4,-3,0,0,-2
1481274038277931,1,-2,-6,-8,8,-6,1,-1
1481274038278929,-2,0,-1,10,4,5,-2,-1
1481274038278929,-3,-1,-2,-10,-3,16,1,0
1481274038291939,0,-1,1,5,-9,-23,0,0
1481274038291939,2,0,2,7,22,3,-1,-1
1481274038300931,0,-1,0,1,-1,-3,0,0
1481274038300931,-1,-3,-1,-3,2,6,2,1
1481274038315001,0,0,-1,6,-5,6,0,-1
1481274038315001,-3,-1,5,-1,-12,-2,-1,1
1481274038321937,1,0,0,8,12,3,5,0
1481274038321937,0,1,-3,3,0,3,1,-3
1481274038338040,-1,1,1,-12,2,4,-1,-1
1481274038338040,-2,0,-1,5,-26,-24,-4,0
1481274038338933,-1,0,1,-10,-3,8,-5,0
1481274038338933,1,-3,0,-16,-4,-8,-4,0
1481274038352004,-1,0,0,25,-4,-13,-1,-1
1481274038352004,-1,0,0,6,9,19,3,1
1481274038367946,-2,-2,-3,-4,-11,-8,1,1
1481274038367946,0,-2,0,0,-1,12,2,0
1481274038374457,-1,-2,-2,-14,-6,-11,-1,-2
1481274038374457,0,-1,1,-10,-7,6,-1,0
1481274038389485,-1,-2,0,7,13,-6,0,-3
1481274038389485,-2,0,1,3,-1,-2,1,1
1481274038397454,1,-1,-4,-6,-3,-2,-2,-1
1481274038397454,-2,1,-4,0,1,0,0,0
1481274038399454,1,-1,1,-2,-7,7,-2,-3
1481274038399454,-1,1,0,4,13,-8,-4,1
1481274038428458,-2,-3,-1,1,-4,2,-1,0
1481274038428458,-1,-3,1,2,3,4,-1,-1
1481274038429454,0,-1,0,0,-6,-5,-2,0
1481274038429454,0,-3,-3,-8,-1,-1,-2,-1
1481274038466965,1,-1,1,-3,8,7,0,1
1481274038466965,1,-2,-1,3,3,-6,-2,-2
1481274038468466,-3,0,1,-1,2,1,0,0
1481274038468466,0,-1,0,4,3,5,1,-2
1481274038469465,-4,-2,1,-9,-23,-12,-4,0
1481274038469465,-1,0,2,5,11,1,0,0
1481274038481979,-1,-2,1,10,14,1,-1,1
1481274038481979,0,0,0,-2,-9,-4,-1,-2
1481274038482978,1,-4,-7,-2,-11,14,10,0
1481274038482978,0,0,-3,-13,-16,-9,-2,-2
1481274038486980,-1,0,1,6,-4,-4,-2,-2
1481274038486980,1,-1,1,-3,0,-3,2,-2
1481274038495020,0,0,0,4,13,1,-5,-1
1481274038495020,-3,-2,1,-3,-5,15,-2,-1
1481274038501072,0,-2,-5,-10,-2,-15,-2,-2
1481274038501072,-1,-1,-2,-2,-7,2,0,-3
1481274038516984,1,1,2,0,-5,-13,-1,0
1481274038516984,-1,0,0,3,0,-2,0,-1
1481274038531981,0,0,1,3,-1,8,-3,0
1481274038531981,-2,0,-5,-10,1,-4,1,2
1481274038532981,-2,-3,-4,1,-5,-2,-2,-2
1481274038532981,0,-1,0,5,2,3,2,-2
1481274038540982,-1,-3,-3,-9,-22,-10,1,0
1481274038540982,-1,-2,1,7,0,-4,-3,-1
1481274038555079,0,-1,-1,0,6,9,0,-2
1481274038555079,-1,-3,-3,-4,7,-2,-1,0
1481274038561997,-1,-1,-1,0,-3,4,1,-3
1481274038561997,0,2,1,5,-3,-5,-1,-2
1481274038577019,-2,-1,1,-6,-4,-1,1,-1
1481274038577019,-1,0,-1,0,2,-7,-2,0
1481274038592021,0,1,3,-6,3,-4,-4,0
1481274038592021,-2,-1,-11,-2,1,0,-1,-2
1481274038608090,0,0,1,7,5,-6,-7,-1
1481274038608090,1,0,6,21,1,-7,3,1
1481274038609020,-3,-3,-9,-27,-4,6,0,0
1481274038609020,0,-1,4,11,7,-13,-2,0
1481274038615090,1,-2,-1,-2,-3,-1,-1,-1
1481274038615090,0,0,-2,-6,-8,7,-3,0
1481274038621123,-1,-1,-1,9,-1,-2,2,1
1481274038621123,0,-4,-2,-14,4,6,-2,0
1481274038645048,0,-2,1,9,-14,-2,-1,-2
1481274038645048,-1,0,0,-5,4,5,-3,0
1481274038647022,0,0,2,8,0,-2,-2,-3
1481274038647022,-1,-1,-1,-2,-6,0,0,-2
1481274038660539,-2,-2,2,-6,-9,1,-4,1
1481274038660539,0,-3,-3,6,13,1,-1,-1
1481274038662037,-1,-3,-6,-12,10,4,0,-2
1481274038662037,0,-1,1,-4,-17,-3,-3,-2
1481274038675140,1,0,-1,-4,9,5,-2,1
1481274038675140,-2,0,-2,-1,-10,-2,-2,-2
1481274038681177,0,-1,-2,11,7,-11,0,0
1481274038681177,-1,1,2,2,4,-1,0,0
1481274038706156,-3,0,-2,-1,6,1,-1,-4
1481274038706156,-2,0,-2,-3,0,2,-2,-2
1481274038707088,0,0,4,3,-8,1,-6,-1
1481274038707088,0,-1,1,-1,-18,0,1,1
1481274038720134,0,-2,-1,5,8,-1,1,0
1481274038720134,1,-1,-1,-12,-10,-4,2,-1
1481274038722087,0,0,1,9,-9,-2,-2,-2
1481274038722087,-3,0,2,0,1,1,-2,-1
1481274038735131,-3,1,0,-2,19,10,1,1
1481274038735131,-1,0,0,0,-1,-10,-2,-1
1481274038741089,-1,1,-2,-7,-11,2,1,1
1481274038741089,2,0,1,7,14,-4,0,1
1481274038757158,-1,-3,-1,3,-5,-2,0,-3
1481274038757158,-1,-1,-2,-8,-3,0,-1,-2
1481274038764098,0,-1,2,-1,1,-2,1,1
1481274038764098,0,-1,-3,-4,-3,-2,-3,-1
1481274038780198,-2,1,-2,3,9,-2,-2,-1
1481274038780198,0,-1,-1,-2,-8,3,4,-1
1481274038782143,0,-3,-4,0,14,3,-1,-3
1481274038782143,-2,1,-2,-4,2,1,-2,0
1481274038794147,-1,-2,5,4,-7,2,1,0
1481274038794147,-2,-2,-3,-1,-3,-4,-3,-1
1481274038819148,-1,0,1,6,3,5,-1,-1
1481274038819148,0,-2,-3,-28,-5,9,-3,-1
1481274038820146,-1,-1,-4,10,-17,-33,-5,-1
1481274038820146,0,-2,-8,-14,8,7,-2,-2
1481274038824215,-2,0,0,3,3,-1,1,-3
1481274038824215,-2,0,1,1,-9,-1,-1,-1
1481274038840150,-1,0,-2,-1,-11,4,1,-1
1481274038840150,0,1,2,1,13,0,-1,-1
1481274038848148,1,-5,-5,-1,11,-1,0,0
1481274038848148,1,-1,1,5,-14,9,1,0
1481274038855154,1,-2,-4,-6,6,0,0,-1
1481274038855154,-1,0,1,6,-6,-20,-2,0
1481274038869163,-2,-1,-2,-10,-12,5,-7,0
1481274038869163,-1,1,0,11,32,-1,-1,2
1481274038877202,-1,-1,0,-2,-3,-7,-2,-1
1481274038877202,1,0,0,-4,-13,1,1,0
1481274038885207,-2,-2,-2,1,-4,-8,3,0
1481274038885207,-2,-1,-2,-3,-6,-4,-1,-2
1481274038900203,-2,-1,-1,-1,6,7,-1,0
1481274038900203,-2,-2,-2,-14,5,-9,0,1
1481274038902202,-3,-1,4,22,-2,-1,-1,0
1481274038902202,0,-2,-3,-5,-6,-2,2,1
1481274038923273,-1,-1,3,2,21,2,1,-1
1481274038923273,-2,-1,0,-3,-12,11,-4,-2
1481274038924202,1,0,-2,-5,6,3,-1,-1
1481274038924202,-1,-4,-1,4,1,-6,-2,-3
1481274038937273,1,0,3,-3,1,5,-1,-1
1481274038937273,1,-1,-4,2,-3,-10,-3,-1
1481274038944228,1,0,-1,-5,4,12,5,-2
1481274038944228,-2,0,-1,5,-6,15,-1,-2
1481274038960720,0,-1,-2,-9,-13,-8,-4,-1
1481274038960720,-1,-1,0,7,24,4,1,0
1481274038962217,-3,-2,-2,-2,8,0,-2,0
1481274038962217,0,-1,1,-1,-8,-9,-1,0
1481274038983286,-1,-1,-6,-9,-12,8,-1,-2
1481274038983286,0,-2,-3,-1,-14,-4,-2,-1
1481274038984283,-2,-2,-3,-7,0,-4,-3,-2
1481274038984283,-1,-2,-3,0,-1,-2,2,1
1481274038997340,-3,0,0,-2,-10,-1,1,2
1481274038997340,1,-1,2,4,0,-5,0,-1
1481274039004354,1,1,0,-3,-2,-5,0,0
1481274039004354,-1,-1,2,4,-3,0,-2,-2
1481274039020355,1,0,-2,-6,9,3,-3,-2
1481274039020355,-1,-2,-3,4,-3,17,2,-1
1481274039022289,-1,0,0,7,-5,-10,-5,0
1481274039022289,1,0,-2,-7,-2,2,0,1
1481274039034387,2,-1,2,10,5,-17,-2,0
1481274039034387,-2,-1,1,-4,4,9,-3,-2
1481274039041295,-2,-1,1,4,-18,-3,0,0
1481274039041295,-1,-2,-10,-12,-1,-2,1,-1
1481274039057361,0,0,-3,-3,1,7,2,0
1481274039057361,-2,1,2,4,-1,1,-1,-1
1481274039071800,-2,-1,1,2,-3,-8,-3,0
1481274039071800,-2,0,2,7,7,-8,-2,0
1481274039088336,-1,-3,-4,-10,3,12,2,-2
1481274039088336,-1,-2,0,-1,-9,-15,-2,-1
1481274039089332,1,0,-1,-3,-4,4,-4,-1
1481274039089332,-3,1,1,0,0,0,1,-2
1481274039094418,-2,0,-1,-1,6,0,1,0
1481274039094418,-1,1,0,3,5,-5,0,1
1481274039109339,0,0,-2,-22,-7,-3,0,-2
1481274039109339,0,-1,-1,13,-2,-7,-1,-2
1481274039117335,0,-1,-1,1,14,-5,1,-2
1481274039117335,1,-2,-3,-1,-6,-19,-1,1
1481274039124394,-2,-1,1,4,19,3,1,0
1481274039124394,0,-1,2,-7,-10,-2,-4,-2
1481274039148343,-1,0,-6,-19,-8,-4,-1,-2
1481274039148343,0,-1,1,9,24,4,1,0
1481274039149336,-2,-1,-1,-4,-7,-1,0,-1
1481274039149336,-2,0,0,2,6,-3,6,-1
1481274039154336,-1,-1,1,7,-3,8,-2,-3
1481274039154336,-2,-2,-2,-4,-9,-2,-6,-3
1481274039163352,1,1,-1,4,-5,-6,0,0
1481274039163352,0,-1,-4,-16,-7,3,-2,1
1481274039177394,-2,0,2,6,-20,-5,-2,1
1481274039177394,0,-1,-1,-6,7,6,0,-2
1481274039184428,-1,1,-2,7,-2,-3,-1,-2
1481274039184428,1,-2,-1,-2,-2,0,0,0
1481274039200393,-2,0,-8,-4,-7,-1,-1,0
1481274039200393,0,0,0,3,-4,-2,-2,1
1481274039202392,-2,-2,-3,-4,1,10,-1,-1
1481274039202392,-1,-1,0,1,10,16,-4,-2
1481274039214393,-1,-2,0,1,-15,-27,-3,0
1481274039214393,-2,-1,0,1,-1,-3,2,-1
1481274039223394,-1,-4,-3,-10,-1,2,-2,-1
1481274039223394,0,-1,-2,0,2,-1,-1,0
1481274039237396,-2,-1,1,9,-2,2,0,-1
1481274039237396,-1,0,1,-3,2,3,4,-1
1481274039261403,-1,-2,-1,-8,-11,-3,2,-2
1481274039261403,-2,1,0,4,-5,-8,-3,-2
1481274039261903,1,-2,0,-2,4,8,0,2
1481274039261903,-2,0,-3,-5,-7,-5,-5,-1
1481274039263902,0,0,-1,8,5,7,-1,-1
1481274039263902,-1,-1,0,2,-1,-14,0,0
1481274039274409,1,-1,1,-8,0,3,-2,-1
1481274039274409,1,2,0,-5,0,-2,-3,-1
1481274039283438,1,0,-3,1,5,3,0,2
1481274039283438,-1,-1,-1,-5,-10,0,1,0
1481274039297511,-1,0,2,13,10,-4,-3,-1
1481274039297511,-1,-3,-4,-17,-19,-1,3,-3
1481274039311540,-1,0,0,5,-3,-4,-1,0
1481274039311540,-1,-3,-3,-7,-2,10,-3,1
1481274039320512,-1,-3,0,0,12,-9,0,-1
1481274039320512,-1,-1,-2,-4,-2,3,1,1
1481274039321442,-1,-1,0,0,2,2,-2,-2
1481274039321442,-1,0,0,3,5,-4,-1,-3
1481274039334478,0,1,-4,-9,-12,1,-1,0
1481274039334478,-1,-2,-4,10,4,6,1,2
1481274039342443,0,-1,0,-3,-1,-2,-2,-1
1481274039342443,-1,-3,-2,-3,-2,-7,-1,-1
1481274039365451,1,0,-1,-1,6,9,-2,-1
1481274039365451,-2,-2,-3,3,-1,0,-1,-1
1481274039366950,1,0,0,-1,-3,-5,3,-2
1481274039366950,-1,1,1,2,1,2,2,-2
1481274039380483,-1,-1,0,-19,2,-5,-1,0
1481274039380483,-1,-2,3,27,2,-11,-5,-1
1481274039381483,0,-3,-1,-11,-6,1,0,-1
1481274039381483,0,-2,-1,0,4,-1,-2,-1
1481274039394495,-2,0,-1,5,4,-1,-5,0
1481274039394495,-2,-1,-1,-2,1,-2,1,1
1481274039409492,-1,1,-2,2,1,2,-1,0
1481274039409492,-1,-1,2,2,1,-7,0,-1
1481274039425489,-1,-1,-1,0,-3,-1,3,0
1481274039425489,1,2,4,-1,-3,-11,0,-1
1481274039427491,-1,0,-1,3,0,3,-3,1
1481274039427491,-2,1,-2,-2,-4,-22,-2,0
1481274039439557,-4,-3,-1,8,0,4,-1,-1
1481274039439557,-2,-3,-2,-6,-18,2,-2,0
1481274039446557,-2,-3,-3,-2,2,2,2,-1
1481274039446557,0,-1,2,0,-9,-7,-1,-2
1481274039454487,0,-1,2,7,0,2,-2,-2
1481274039454487,1,0,-2,-9,6,2,-1,-2
1481274039463001,-3,2,-5,-8,-14,-6,-2,0
1481274039463001,-2,-2,-1,1,6,1,0,1
1481274039477738,0,-3,2,9,-1,1,-2,-2
1481274039477738,-1,0,0,5,7,10,0,-1
1481274039483782,1,1,3,-1,-2,-5,0,0
1481274039483782,0,-2,0,-5,-3,3,-2,-1
1481274039499780,0,1,-1,-2,-6,-1,1,1
1481274039499780,-1,-5,-4,-6,11,7,1,-2
1481274039506781,0,-1,-2,-2,-5,-11,-1,1
1481274039506781,2,0,-3,0,-4,2,-1,0
1481274039513786,1,-2,0,1,-12,11,1,-1
1481274039513786,-2,-1,-1,-7,-4,-6,-3,0
1481274039522712,0,0,0,1,9,1,-3,-2
1481274039522712,0,-2,-1,4,-1,3,1,0
1481274039537716,-1,0,-5,-9,-8,-5,0,-1
1481274039537716,-2,-1,-1,2,4,4,2,-2
1481274039543711,-1,-1,3,3,-2,-2,-3,-2
1481274039543711,-2,-2,0,-3,0,4,-2,-1
1481274039559724,-1,-2,-2,1,11,1,-3,-1
1481274039559724,0,-1,-1,-18,0,6,-2,1
1481274039583818,-4,-3,-3,16,-7,-13,-2,-1
1481274039583818,-3,1,0,1,-7,0,-2,-1
1481274039584748,-2,-1,-1,-4,7,6,2,1
1481274039584748,0,-1,1,-3,3,0,-2,0
1481274039585749,0,-1,-2,-9,5,3,0,1
1481274039585749,-2,-1,-1,-1,-8,-1,-2,0
1481274039597750,0,-1,1,3,-5,-16,-1,-2
1481274039597750,0,0,-1,-2,5,6,-1,-1
1481274039611847,-1,-2,-2,-1,6,0,-1,-1
1481274039611847,1,-2,0,9,-5,0,-2,0
1481274039619820,0,-1,0,-16,-9,-6,-3,0
1481274039619820,-2,0,1,10,-6,-4,2,1
1481274039626751,1,-3,2,-3,-1,8,1,-1
1481274039626751,-2,0,-2,-3,4,-14,-1,-1
1481274039642757,0,2,3,8,6,-5,2,0
1481274039642757,0,-3,1,-1,0,-1,-1,-1
1481274039644751,0,0,-2,-4,-2,0,-1,-1
1481274039644751,-1,0,-2,-3,-7,13,1,-2
1481274039657755,-1,-1,-1,2,14,-6,-2,-1
1481274039657755,-3,0,0,3,-7,-5,-1,1
1481274039664262,-2,-2,-2,-19,-10,6,1,-1
1481274039664262,2,-1,1,14,10,1,-1,-1
1481274039679854,0,-1,-1,-3,-3,-4,-3,-1
1481274039679854,-1,-1,-2,-3,5,5,-1,0
1481274039686785,-1,2,2,7,3,-3,-1,0
1481274039686785,-2,-1,0,-4,7,0,1,-1
1481274039702787,-2,-1,-2,-8,-10,3,0,1
1481274039702787,1,-1,-1,5,4,1,-1,-1
1481274039704786,0,0,0,-1,-6,-18,-4,-1
1481274039704786,-2,-2,-2,-8,6,8,1,-1
1481274039716857,-2,-1,-1,7,-4,-4,0,0
1481274039716857,0,-1,-2,-3,-8,2,-3,-2
1481274039723857,1,-1,-1,3,3,-23,-2,0
1481274039723857,-1,0,-2,1,3,1,0,-2
1481274039739858,0,-2,-2,-7,2,12,0,-1
1481274039739858,-1,-1,-2,-4,-6,-16,-1,-1
1481274039746857,2,0,1,-1,-7,5,1,-1
1481274039746857,0,-1,0,1,0,2,-1,0
1481274039763361,-1,-2,-3,-5,4,5,-1,-2
1481274039763361,-1,-2,-3,-5,2,-10,0,1
1481274039764803,-1,-1,2,15,18,18,-1,-3
1481274039764803,-1,-2,-3,-7,-12,-13,-3,-2
1481274039776942,-1,1,-1,4,0,4,2,0
1481274039776942,-1,1,-1,-11,10,7,0,0
1481274039791945,-1,-1,-3,-1,-16,-1,-1,-1
1481274039791945,-1,-1,3,-4,4,2,3,0
1481274039800013,0,-1,-6,-10,-15,-2,-1,-1
1481274039800013,-1,0,-3,3,0,2,-2,-1
1481274039806972,0,-2,-3,3,2,1,0,-1
1481274039806972,-2,1,1,4,4,2,-2,-3
1481274039829945,-1,-1,1,4,1,-3,-1,-2
1481274039829945,0,-2,1,4,-2,-1,1,1
1481274039831944,-2,0,-1,-8,-5,4,0,2
1481274039831944,1,0,-3,-7,-1,-6,-6,1
1481274039836945,-1,-1,3,3,-6,1,0,0
1481274039836945,0,0,2,16,1,-6,-2,-1
1481274039843947,-3,-2,-3,-10,-11,-7,-4,0
1481274039843947,0,-2,0,6,-2,6,-4,0
1481274039859948,-1,0,-2,-8,2,5,-2,-1
1481274039859948,-1,0,0,2,1,2,1,-2
1481274039866955,-1,0,-1,4,2,4,2,-1
1481274039866955,-2,0,0,-6,-7,-12,0,0
1481274039883094,-2,-1,1,3,0,1,-2,1
1481274039883094,-2,0,-1,6,-2,3,2,0
1481274039884023,-1,2,-1,-2,1,0,0,0
1481274039884023,2,0,-3,0,1,4,-2,0
1481274039897095,-1,-2,-1,-6,-1,-4,2,-1
1481274039897095,-1,-1,-1,-2,-8,-3,-3,-2
1481274039912025,-1,1,-2,-6,1,-4,-1,-2
1481274039912025,0,-1,0,-4,-3,1,3,-1
