timestamp,x,y,z
1481274026718895,0.1875,-0.125,-1.75
1481274026742914,0.5,0.125,-2
1481274026756909,-1,0.6875,-1.8125
1481274026778916,-1.4375,1.0625,-1.375
1481274026801921,0.3125,1.3125,-1.5625
1481274026824920,-0.3125,0.625,-2
1481274026838994,0.1875,0,-1.875
1481274026862434,-1.125,1,-1.1875
1481274026875959,-0.5625,1.9375,-0.0625
1481274026898948,-1.8125,1.875,-0.375
1481274026921949,-1,1.0625,-0.375
1481274026937950,0,0.6875,-0.3125
1481274026958975,-0.5,0.6875,0.75
1481274026989984,0.75,0.5625,1.5625
1481274026995982,-2,0.375,1.3125
1481274027018984,-5.375,0.5,0.0625
1481274027041990,-2.4375,0.25,-0.25
1481274027056492,4.4375,0.5625,0.4375
1481274027079000,4.75,0.1875,-0.0625
1481274027103076,0.1875,-0.1875,0
1481274027125008,-2.4375,0.125,0.375
1481274027139065,-3.0625,0.5625,0.3125
1481274027162090,-1.6875,0.625,0.0625
1481274027176097,1.6875,0.625,0.0625
1481274027199095,0.9375,0.4375,0.1875
1481274027221098,-0.875,0.3125,0.125
1481274027236101,-1.5,0.5625,0
1481274027267173,-2,0.9375,-0.375
1481274027281191,0.3125,0.6875,-0.125
1481274027296116,3.6875,0.1875,0.3125
1481274027319118,2.875,0,0.8125
1481274027341190,-1.375,0.1875,0.4375
1481274027356700,-2.875,0.4375,-0.0625
1481274027379023,0.1875,0.5,-0.25
1481274027401095,3.375,0.6875,-0.1875
1481274027434025,1.6875,2.1875,-1.3125
1481274027439098,-6.4375,2.375,-3.5625
1481274027461535,-3.625,-0.125,-2
1481274027476924,13.5625,-3.1875,2.375
1481274027498896,18.4375,-3.875,1.25
1481274027521917,3.375,-4.6875,-1.8125
1481274027544985,-1.5625,-3.1875,-2.875
1481274027559404,7.9375,-2.4375,-2.5
1481274027581530,11.0625,-2.6875,-0.8125
1481274027604452,6.9375,-3.4375,0.625
1481274027619441,4.5,-3.3125,2.25
1481274027641442,0.75,-2.25,3.3125
1481274027659523,-1.75,-0.4375,3.5625
1481274027678833,-3.5625,0.625,2.125
1481274027710930,-3.25,1.4375,2.0625
1481274027717833,1.75,1.875,2.375
1481274027738904,0.6875,0.875,1.8125
1481274027769949,-4.5,-0.1875,1.8125
1481274027776868,-6.125,-1.0625,1.375
1481274027798872,-5.125,-1.375,-0.1875
1481274027822871,-3.875,-0.5625,-1.25
1481274027844872,-2.0625,0.3125,-2
1481274027859381,-1.4375,1.5625,-2.5625
1481274027882890,-0.25,1.75,-2.375
1481274027904970,2.25,0.75,-2
1481274027918890,5.4375,0,-1.6875
1481274027941897,5.875,-0.4375,-1.125
1481274027964983,2.875,-0.6875,-0.4375
1481274027986991,-2.6875,-1.375,-1
1481274028000990,-7.625,-1.125,-1.125
1481274028024991,-7.375,-0.9375,-1.4375
1481274028046993,-4.0625,-0.3125,-1.875
1481274028061501,-1.875,-0.1875,-1.875
1481274028085013,-1.9375,-0.0625,-1.8125
1481274028100014,-2.9375,0.5625,-1.8125
1481274028121016,-3.0625,0.4375,-2.25
1481274028145016,-2.1875,0.0625,-2.0625
1481274028159024,-1.1875,0,-1.8125
1481274028181526,-1.125,0,-0.75
1481274028213030,-2.125,-0.375,-0.6875
1481274028219031,-3.6875,-0.875,-0.25
1481274028241534,-2.9375,-1.1875,-0.125
1481274028273038,-1.625,-1.25,0.1875
1481274028279038,-0.375,-1.875,0.5
1481274028301541,1.0625,-2.1875,0.5625
1481274028325544,0.3125,-2.0625,0.4375
1481274028339046,-1.6875,-1.8125,0.125
1481274028361549,-2.3125,-1.5625,-0.5
1481274028384052,-0.875,-1.5625,-0.4375
1481274028399053,-0.8125,-1.75,-0.625
1481274028421556,-4.1875,-1.8125,-0.875
1481274028453061,-9.5625,-1.75,-0.6875
1481274028459061,-14.4375,-2.0625,-0.4375
1481274028490065,-19.9375,-2.5,-0.875
1481274028504067,-25.75,-3.375,-0.6875
1481274028519069,-29.0625,-3.125,-0.375
1481274028543072,-33.9375,-3.25,-0.875
1481274028564075,-44.75,-2.5625,-1.375
1481274028579077,-50.9375,-1.3125,-1.25
1481274028603079,-49.125,-0.9375,-1.5625
1481274028624082,-39.9375,-1.125,-0.75
1481274028639084,-30.125,-0.5,-0.3125
1481274028662087,-31.8125,-0.125,-1.1875
1481274028684090,-41.8125,0.3125,-1.9375
1481274028699091,-49.25,-0.25,-2.75
1481274028721594,-48.875,-0.0625,-2.375
1481274028744097,-53.25,2.3125,-2.4375
1481274028767100,-82,4.4375,-5.0625
1481274028781602,-117.375,4.8125,-7.0625
1481274028804105,-128.688,2.75,-5.25
1481274028827108,-110.563,2.5,-2.6875
1481274028841609,-100.938,2,-2
1481274028864113,-103.625,-0.4375,-0.5
1481274028882115,-102.313,-2.75,0.875
1481274028901618,-94.625,-2.625,2.5
1481274028933121,-90.25,-2.3125,2.625
1481274028939122,-79.5,-2.5,2.5625
1481274028961626,-66.6875,-1.125,2.3125
1481274028992129,-70.8125,0.5,0.9375
1481274029000630,-75.75,0.875,-0.625
1481274029021633,-65.9375,0.6875,-0.375
1481274029045636,-55.0625,0.5625,-0.75
1481274029060638,-57.4375,0.8125,-1.25
1481274029081640,-63.5,1.6875,-1.625
1481274029104143,-68.3125,2.4375,-2
1481274029120645,-70.6875,1.75,-0.4375
1481274029141648,-66.0625,1.5,2
1481274029164151,-64.8125,2.9375,2.75
1481274029186653,-70.25,4.0625,1.0625
1481274029201656,-68.6875,4.125,1.1875
1481274029224160,-57.9375,3.5,3.3125
1481274029246662,-52,4.0625,5.625
1481274029261663,-57.1875,5.1875,5.375
1481274029283672,-64.875,4.25,4.5
1481274029306673,-62.4375,2.8125,7.3125
1481274029321674,-58.75,4.4375,8.4375
1481274029343675,-65.1875,6.1875,7.3125
1481274029375690,-69.125,5.9375,7.25
1481274029381767,-65.1875,6.3125,8.875
1481274029403694,-65.0625,7.8125,9.0625
1481274029426695,-67.9375,7.8125,9.9375
1481274029449776,-67.375,7.375,11.8125
1481274029464295,-67.6875,8.125,12.3125
1481274029486895,-68.1875,8.9375,11.125
1481274029501885,-62.0625,8.6875,10.75
1481274029523802,-56.125,10.0625,11.625
1481274029546854,-56.4375,11,10.625
1481274029561881,-55.1875,10.1875,8.5625
1481274029584450,-49,8.5,7.4375
1481274029606483,-41.5625,7.5,9.375
1481274029621477,-37.625,7.5,10.0625
1481274029644409,-39.125,6.6875,9
1481274029666759,-35.875,5.6875,8.5625
1481274029681688,-28.375,7.125,6.5
1481274029703758,-26.6875,8.1875,5.125
1481274029726761,-26.5625,7.8125,5.1875
1481274029741694,-21.875,7.625,5.4375
1481274029764199,-14.125,8.5625,5.3125
1481274029786800,-18.75,10.6875,4.6875
1481274029801792,-29.5,11.6875,3.1875
1481274029823795,-30.8125,10.875,2.4375
1481274029846761,-29.1875,11.5,2.875
1481274029861808,-31.25,13.375,2.625
1481274029883831,-36.5,13.5,1.5625
1481274029906863,-39.6875,14.375,1.75
1481274029922831,-45.4375,16.75,1.25
1481274029943904,-51.25,16.9375,0.25
1481274029966912,-48.0625,14,2.125
1481274029982896,-36.1875,12.9375,4
1481274030004970,-31.875,13.25,3.25
1481274030026925,-30.125,11.375,2.375
1481274030042900,-26.875,11.1875,1.3125
1481274030063984,-30.3125,13,0.375
1481274030087016,-31.75,13.6875,1.125
1481274030103005,-29.75,12.875,0.8125
1481274030124077,-25.875,12,-0.375
1481274030147009,-23.9375,10.8125,0.5625
1481274030163018,-18.0625,9.25,2.4375
1481274030184041,-7.8125,8.125,1.6875
1481274030207041,-12.5,8.875,0.5625
1481274030223041,-29.875,8.6875,-0.25
1481274030244116,-33.25,8.4375,0.0625
1481274030266588,-4.8125,6.4375,3.625
1481274030282592,13.9375,4.75,4.625
1481274030303564,0.75,2.25,1.8125
1481274030326635,-11.0625,-0.3125,2.6875
1481274030342567,4.5625,-2.3125,6.8125
1481274030364075,13.1875,0.0625,4.4375
1481274030386130,3.375,1.9375,1.4375
1481274030403097,-0.3125,-0.625,1.9375
1481274030424100,7.8125,-2.375,5.5
1481274030447105,12.125,-0.625,4.9375
1481274030463181,5.5625,-0.375,2.625
1481274030484284,5.0625,-1.875,3.1875
1481274030506314,5.8125,-0.0625,1.9375
1481274030523218,5.8125,-1.25,0.4375
1481274030544221,10.1875,-2.0625,-0.25
1481274030566299,12.6875,-2.4375,-0.9375
1481274030583318,10.375,-1.9375,-2.0625
1481274030604379,-0.6875,-0.875,-3.5625
1481274030626322,1.75,-2.3125,-2.4375
1481274030643322,9.375,-2.125,-1.5
1481274030664332,11.5625,-2.625,-2.4375
1481274030686838,10.6875,-2.875,-2.5625
1481274030702838,6.125,-2.8125,-3.8125
1481274030723911,9.75,-4.5625,-3.25
1481274030746842,14.4375,-4.5,-2.75
1481274030762853,13.875,-5,-0.5
1481274030784378,13.625,-7.625,1.75
1481274030806449,6.9375,-9.125,3.0625
1481274030823378,6.875,-10.6875,3.375
1481274030844383,14.75,-10.1875,2.625
1481274030866486,22.125,-11,0.375
1481274030889523,28.125,-10.1875,-0.875
1481274030905508,18.1875,-7.375,-2.75
1481274030926595,14.625,-6.5625,-3.75
1481274030949557,20.3125,-6.875,-3.4375
1481274030965519,17.75,-5.8125,-3.1875
1481274030987027,2.9375,-4,-5.0625
1481274031009101,-7.75,-3.375,-6.5
1481274031025039,1.0625,-4.3125,-4.625
1481274031047031,14.5625,-2.6875,-4.1875
1481274031063112,9,-0.75,-5.5
1481274031085633,-0.3125,-1.3125,-6.3125
1481274031106705,6.625,-1.4375,-5.75
1481274031128634,20.125,-2.625,-6.1875
1481274031145636,28.1875,-3.625,-5.75
1481274031166718,26,-4,-6.5
1481274031188810,27.1875,-4.9375,-6.6875
1481274031205740,47.875,-7.375,-8
1481274031226743,88.1875,-11.3125,-8.875
1481274031248844,126,-15.0625,-8.25
1481274031265760,149,-15.3125,-8.25
1481274031286335,148.75,-13.6875,-8.5
1481274031309267,135.938,-11.125,-8.75
1481274031325267,119.25,-9.75,-5.125
1481274031346379,103,-11.6875,2.875
1481274031369088,95.75,-16.4375,4.25
1481274031393017,68.25,-16.375,1.625
1481274031407019,38.875,-14.5625,-2.875
1481274031429020,48.75,-16.1875,-2.75
1481274031445022,90.0625,-18,-0.625
1481274031466612,122.688,-16.3125,-1.25
1481274031489333,115.938,-14.625,-4.125
1481274031505264,116,-16.75,-1.0625
1481274031526335,130.438,-18.5625,0.25
1481274031549368,142.625,-19.4375,-0.9375
1481274031565823,149.938,-20.5625,-0.9375
1481274031586545,153.688,-22.5,3.4375
1481274031609526,152.125,-20.375,6.1875
1481274031625470,124.813,-16.5625,4.5625
1481274031646473,89.1875,-13.5625,-1.0625
1481274031668707,77.0625,-14.125,-1.75
1481274031685635,92.625,-15.125,2
1481274031709639,107.625,-14.75,3.125
1481274031728641,107.75,-13.625,2.75
1481274031745641,87.6875,-13.625,0.375
1481274031766715,71.125,-15,2.9375
1481274031789294,66.6875,-14.875,3.125
1481274031805226,67.1875,-12.125,1.0625
1481274031828225,69,-10.625,-0.9375
1481274031849269,73.4375,-11.25,-0.25
1481274031871171,71.8125,-10.75,0.5
1481274031888102,67,-10.3125,-0.1875
1481274031909118,60.6875,-9.5,-0.875
1481274031933106,57.3125,-10.8125,-1.375
1481274031949105,64.25,-11.75,0.625
1481274031969169,74.5625,-9.25,1.5
1481274031987168,70.5,-8.0625,0.0625
1481274032008173,58.25,-8.9375,-1
1481274032029172,43.375,-8.1875,-1.25
1481274032045174,37.5625,-6,-0.5625
1481274032068251,42.5625,-4.375,0.25
1481274032088801,45.6875,-4.75,0.1875
1481274032105764,43.625,-4.375,1
1481274032127769,37.1875,-4.1875,-0.5
1481274032151764,41.375,-5,-1.6875
1481274032165774,51.125,-3.875,-1.5
1481274032187789,55.5,-1.125,-2.8125
1481274032208786,46.0625,1.5,-3.0625
1481274032225789,25.125,2.375,-4.5625
1481274032247790,12.25,3.5,-4.875
1481274032268895,8.9375,6.875,-3.5625
1481274032284893,-2.625,5.625,-1.9375
1481274032307891,-12.6875,2.5,0.9375
1481274032328893,-10.6875,2.75,2.375
1481274032344894,-7.8125,2.625,1.1875
1481274032375494,-3.1875,1.6875,0.75
1481274032389495,-0.125,2.6875,0.25
1481274032405495,-3.125,2.75,-0.3125
1481274032427500,-4.6875,1.8125,-0.0625
1481274032449542,-0.5,1.4375,-0.0625
1481274032465566,2.75,1.4375,-0.1875
1481274032489587,-0.5,0.3125,-0.125
1481274032508587,-6.25,-0.8125,-0.4375
1481274032525589,-6,-1.625,-0.0625
1481274032547594,-2.8125,-1.6875,0.0625
1481274032568671,-2.1875,-1.6875,-0.25
1481274032591764,-0.125,-1.75,-0.0625
1481274032607696,-0.1875,-1.75,0
1481274032628697,-1.3125,-2.1875,-0.4375
1481274032652698,1.875,-1.875,0
1481274032668208,7.9375,-2.0625,0.75
1481274032688951,12.0625,-1.875,1.3125
1481274032704950,6.0625,-1.3125,0.625
1481274032727952,2.875,-1.375,0.125
1481274032749026,7.9375,-1.9375,0.5
1481274032779557,14.125,-1.5,2.0625
1481274032787558,17.6875,-2.3125,2.875
1481274032819558,19.625,-2.4375,3.375
1481274032831630,21.625,-3,3.75
1481274032847584,25.125,-4,4.375
1481274032877589,25.4375,-4.6875,4.375
1481274032891659,26.8125,-5.875,4.75
1481274032907596,31.8125,-5.3125,5.5
1481274032930592,39.5625,-6.4375,5.9375
1481274032951666,48.0625,-7.875,8.125
1481274032968101,51.5625,-9.25,10.625
1481274032990120,49,-9.875,11.25
1481274033012109,42.375,-8.8125,11.3125
1481274033028109,35.1875,-8.9375,9.9375
1481274033050117,34,-9.875,9.3125
1481274033071716,38.375,-8.4375,9.125
1481274033087644,42.6875,-6.5,8.5
1481274033110643,45.375,-5.8125,8.625
1481274033131713,40,-6.1875,7.5625
1481274033148646,31.25,-7.4375,5.9375
1481274033170684,33.75,-9.375,5.9375
1481274033191756,47.125,-9.375,7.5625
1481274033207689,53.8125,-7.6875,7.625
1481274033230691,51.875,-7.3125,6.3125
1481274033251691,49.5625,-7.8125,4.375
1481274033274269,50.25,-8.6875,4.1875
1481274033290204,51.4375,-8.5625,5.8125
1481274033311208,52.6875,-7.9375,6.8125
1481274033335321,55.625,-7.3125,5.25
1481274033350210,53.4375,-6.8125,3.3125
1481274033371882,50.25,-7.125,1.8125
1481274033387812,51.4375,-7.125,1.4375
1481274033410813,57.0625,-5.75,1.375
1481274033440817,56.9375,-4.125,-0.0625
1481274033447816,53.625,-3.8125,-2.5625
1481274033470853,50.5625,-3.6875,-3.0625
1481274033499858,49.8125,-3.125,-2.75
1481274033507855,47,-3.625,-1.375
1481274033530859,46.9375,-3.8125,-0.875
1481274033551950,48.8125,-4.5,-0.8125
1481274033568366,49.5,-4.625,-0.3125
1481274033590375,44.625,-5.25,0.625
1481274033614376,46.3125,-6.4375,2.375
1481274033628377,51.5,-7.25,4.5
1481274033650378,52.125,-7.875,4.125
1481274033671499,49.375,-8.3125,5.1875
1481274033687471,47.25,-8.5625,6.6875
1481274033709518,47.0625,-10.125,8.0625
1481274033732493,49.6875,-10.1875,7.1875
1481274033747474,48.5,-8.8125,6.8125
1481274033770099,48.5,-10.1875,5.0625
1481274033792150,55.5,-10.75,4.0625
1481274033815113,55.6875,-10.0625,3.125
1481274033830090,53.8125,-10.75,1.125
1481274033852161,60.0625,-11.375,2.0625
1481274033868095,61.25,-11.5,3.25
1481274033889663,56.3125,-12.25,4.3125
1481274033912621,55.3125,-12,4.4375
1481274033934678,55.4375,-10.875,5.5625
1481274033949679,48.9375,-10.25,5.5625
1481274033972634,46,-9.375,5.75
1481274033994632,47.5625,-7.8125,6.625
1481274034009632,43.125,-6.8125,6.3125
1481274034032637,35.875,-6,3.6875
1481274034054744,29.4375,-5.875,0.3125
1481274034069746,25.1875,-5.6875,-0.375
1481274034091816,29.9375,-7.125,0.875
1481274034114825,37.25,-7.5,2.6875
1481274034129839,30.25,-7.6875,1.5
1481274034152760,22.875,-8.625,0.125
1481274034174454,28.6875,-7.625,0.875
1481274034189457,34.9375,-5.375,2.8125
1481274034212385,37,-5.25,3.0625
1481274034234386,36.3125,-4.375,0.4375
1481274034249439,35.8125,-3.5,-1.0625
1481274034272558,36.5625,-1.4375,-2.4375
1481274034294490,38.1875,2.375,-3.5
1481274034309573,37.6875,3,-2.8125
1481274034332584,24.9375,2.0625,-4.0625
1481274034355107,18.75,1.25,-3.5625
1481274034369571,24.625,-1.1875,0.4375
1481274034392677,33.75,-2,2.9375
1481274034414747,36.3125,-3.0625,3.375
1481274034429748,30.75,-3.75,3.25
1481274034451751,30,-4.25,4.125
1481274034474779,25.0625,-5.4375,3.9375
1481274034489824,27.125,-6.8125,4.875
1481274034511710,33.3125,-7.0625,4.8125
1481274034542719,35.0625,-7.9375,4.1875
1481274034549711,31.3125,-8.375,2.0625
1481274034571836,30.5,-8.6875,0.4375
1481274034595776,30.25,-8.4375,0.875
1481274034609770,28.6875,-7.3125,2.5625
1481274034631838,24.5,-5.375,2.875
1481274034654841,23,-5.6875,3.875
1481274034669851,23.5625,-5.3125,5.125
1481274034691973,24,-5.4375,5.0625
1481274034714906,25.75,-4.0625,3.75
1481274034729980,22,-3.6875,2.4375
1481274034751979,20.6875,-4.5,1.3125
1481274034775094,20.625,-4,1
1481274034790087,17.5,-3.875,0.6875
1481274034820093,14,-2.5,0.0625
1481274034835100,6.875,-1.5,-0.6875
1481274034851029,3.3125,-0.3125,0.125
1481274034872140,-4.0625,1.5625,0.3125
1481274034895091,-5.8125,-2.3125,0.875
1481274034911072,4.5625,-0.3125,0.125
1481274034932145,-5.9375,0.5625,-0.3125
1481274034955076,-21.1875,3.9375,-1.6875
1481274034971152,-37.75,3.9375,-6.4375
1481274034992157,-23.5,-1.375,-4.3125
1481274035015160,3.4375,0.4375,-1.875
1481274035031157,-9.125,1.4375,-4.9375
1481274035052227,-28.5625,0.4375,-10.5
1481274035075263,-24.6875,-0.5625,-10
1481274035090264,-6.6875,0.125,-4.5625
1481274035112332,-4.25,-0.25,-2.4375
1481274035135267,-11.875,-0.5,-1.5
1481274035151265,-17.9375,0.6875,-3.75
1481274035172505,-16.125,-0.3125,-4.125
1481274035194464,-15.8125,0.3125,-4.9375
1481274035211464,-17.5,1.375,-5.875
1481274035232469,-23.625,3,-8.8125
1481274035254546,-30.5625,3.125,-9.8125
1481274035270975,-40.0625,3.3125,-10.375
1481274035292045,-39.75,3.3125,-7.75
1481274035315058,-33.1875,3.6875,-4.5
1481274035330985,-25.4375,3.375,-2
1481274035352056,-28.125,5.3125,-3.375
1481274035374858,-44.25,8.1875,-8.25
1481274035390775,-42.375,4.875,-8
1481274035411805,-20.875,6.625,-6
1481274035434844,-29.625,9.8125,-6
1481274035450784,-59.125,10.875,-10.6875
1481274035471948,-69.0625,9.375,-13.0625
1481274035494928,-54.1875,8.8125,-10.75
1481274035510879,-42.75,10.9375,-5.8125
1481274035531971,-52,12.5625,-4.5625
1481274035554956,-69.75,9.1875,-7.9375
1481274035570890,-69.375,7.875,-10.375
1481274035592069,-53.9375,10.375,-7.9375
1481274035615033,-46.0625,13.3125,-5.5625
1481274035630035,-67.3125,12.8125,-11.375
1481274035651967,-81.75,6.5,-14.375
1481274035675078,-56.3125,5.75,-7.5625
1481274035690059,-33.1875,12.3125,0.25
1481274035712079,-38.5,14.6875,1.25
1481274035735080,-44.125,9,-2
1481274035750010,-41.0625,6.625,-4.75
1481274035773208,-41.25,8.875,-4.1875
1481274035795119,-42.3125,11.1875,-2.4375
1481274035811115,-46.6875,12.4375,-4.625
1481274035833117,-57.875,15.6875,-8.25
1481274035855118,-74.5,16.125,-10.4375
1481274035870628,-68.25,13.1875,-9.3125
1481274035893636,-45,13.5,-6
1481274035914700,-41.0625,16.4375,-5.8125
1481274035930638,-69.125,19.625,-13.25
1481274035953639,-94.8125,16.625,-18.5
1481274035974323,-85.4375,14.8125,-17.75
1481274035997320,-58.25,17.0625,-12.875
1481274036013256,-43.125,16.875,-8.875
1481274036035268,-54.875,16.6875,-11.5
1481274036057335,-73.8125,15.9375,-17.25
1481274036073361,-83.5625,14.5,-18.6875
1481274036094361,-75.8125,13.6875,-12.4375
1481274036117433,-60.375,13.5625,-7.9375
1481274036133362,-58.875,13.8125,-9.9375
1481274036154434,-66.75,12.8125,-12.625
1481274036177392,-76.8125,11,-11.75
1481274036193393,-83.4375,9.1875,-9.3125
1481274036214396,-72.0625,10.625,-7.4375
1481274036237397,-64.0625,11.875,-7.875
1481274036261481,-64.0625,9.6875,-8.3125
1481274036275060,-64.6875,6.9375,-7.9375
1481274036297103,-61.375,5.5625,-6.1875
1481274036313990,-56.9375,3.9375,-4.25
1481274036335061,-52.4375,2.5625,-2.375
1481274036357498,-47.5,2.6875,-2.8125
1481274036372587,-50.875,3.1875,-4.0625
1481274036394579,-59.625,3.4375,-6.0625
1481274036424652,-66.75,2.25,-7.875
1481274036433581,-57.6875,1.9375,-7.875
1481274036454583,-46.4375,1.875,-5.6875
1481274036476785,-44.9375,0.9375,-4
1481274036493785,-46.4375,-0.5,-5.3125
1481274036514855,-52.0625,0.25,-6.25
1481274036538788,-63.0625,1.0625,-7.8125
1481274036552791,-62.4375,-1.4375,-8.9375
1481274036574376,-48.625,-3,-8.1875
1481274036597376,-40.75,-1.5,-8
1481274036613377,-37.6875,-1.6875,-7.3125
1481274036634444,-33.0625,-2.6875,-5.0625
1481274036657457,-29.6875,-2.3125,-5.875
1481274036672469,-28.5625,-1.5,-5.875
1481274036703465,-24.0625,1.0625,-4.375
1481274036717539,-23.6875,2.9375,-3.6875
1481274036732515,-29.9375,2.125,-3.375
1481274036764064,-32.625,2.25,-2.375
1481274036777090,-25.4375,1,-1.3125
1481274036793090,-7.25,0,3.25
1481274036816213,10.3125,0.6875,6
1481274036837163,12.75,1.6875,5.9375
1481274036853094,0.75,2.3125,5.1875
1481274036876197,-11.125,2.5,4.375
1481274036898262,-14,0.9375,4.3125
1481274036913198,1.0625,1.75,5.125
1481274036936200,13.5,2.8125,3.5625
1481274036957709,7.1875,3.3125,2.375
1481274036981229,-8.375,3.125,0.25
1481274036996230,-13.875,2.9375,-0.875
1481274037018242,-5.125,3,0
1481274037041234,1.6875,3.25,0.375
1481274037056233,-0.5,2.8125,-0.6875
1481274037077292,-6.1875,1.625,-1.625
1481274037093295,-7.125,1.625,-1.5625
1481274037116294,-6.1875,1.375,-2.1875
1481274037144296,-7.375,0.5625,-1.25
1481274037153296,-3.3125,-0.9375,-0.375
1481274037177457,0.125,-1,0.4375
1481274037197460,-1.5625,-1.25,-1
1481274037221459,-8.1875,-1.5625,-1.125
1481274037236460,-10.6875,-0.0625,-3.5
1481274037259039,-8.3125,-0.625,-3.0625
1481274037272542,-1.0625,0,-2.375
1481274037295649,-1.0625,-0.3125,-2.5625
1481274037317656,-4.75,0.6875,-3.75
1481274037339649,-8.8125,1.75,-5.1875
1481274037356655,-19.75,2.1875,-6.6875
1481274037377696,-25.3125,1.375,-6.9375
1481274037392699,-18.875,1.8125,-5.6875
1481274037423696,-12.75,1.25,-5.375
1481274037437700,-10.875,0.875,-4.9375
1481274037452702,-10.125,0.3125,-3.1875
1481274037483932,-4.4375,0.9375,-3.125
1481274037498936,-3.0625,0.8125,-2.3125
1481274037512933,-2.875,1.3125,-2.5625
1481274037535936,1.4375,1.75,-2.875
1481274037556984,4.5,1.9375,-2
1481274037580128,3.5,2.5,-1.6875
1481274037595087,1.6875,2.625,-1.875
1481274037625126,-0.625,2.125,-1.5
1481274037634086,-1.375,2,-1
1481274037655090,1.75,1.8125,-0.125
1481274037678271,3.6875,1.9375,0.25
1481274037701200,-0.375,1.625,0.1875
1481274037722272,-1.0625,2,-0.125
1481274037738311,0.4375,1,-0.4375
1481274037761261,3.0625,0.375,0.4375
1481274037776299,4.6875,0.125,0.6875
1481274037798304,3,-0.375,0.9375
1481274037813304,1.4375,-0.4375,0.9375
1481274037835303,-0.375,-0.0625,0.6875
1481274037858820,-1.9375,-0.0625,0.3125
1481274037873326,0.125,-0.375,0.625
1481274037895693,2.25,-0.4375,1.125
1481274037926696,2.0625,-1,1.75
1481274037932698,1.125,-0.9375,2.1875
1481274037955698,0.5,-1.3125,2.125
1481274037986740,-0.25,-1.9375,2.5
1481274037992746,-0.5,-2.0625,2.1875
1481274038015742,-2.4375,-2.1875,2.0625
1481274038038743,-3.9375,-1.5625,1.9375
1481274038059810,-7.1875,0.125,1.6875
1481274038075846,-6.1875,0.125,1.3125
1481274038098847,-4.4375,-0.1875,1.25
1481274038119918,0.25,-0.1875,0.625
1481274038135852,0.75,0.5,-0.5625
1481274038158846,-3.5,0.5625,-0.75
1481274038180896,-1.1875,0.375,-0.8125
1481274038203894,4,0.125,-0.625
1481274038218899,5.125,-0.1875,-0.125
1481274038239896,3.625,0.125,0.0625
1481274038255897,0.6875,0.3125,-0.6875
1481274038278929,-2.375,0.4375,-1.25
1481274038300003,-3.8125,0.6875,-1.25
1481274038315931,-1.75,0.625,-0.8125
1481274038338933,2.0625,0.875,0.5625
1481274038367447,1,0.9375,0.75
1481274038375452,-1.125,0,1.3125
1481274038398453,0.25,-0.9375,2.125
1481274038428458,-0.6875,-1.5625,2.0625
1481274038467466,-4.9375,-2.375,2
1481274038481979,-5.4375,-3,2.5
1481274038483979,-3.5,-3.1875,2.3125
1481274038495020,-0.1875,-3.4375,1.375
1481274038517980,-2.9375,-3.875,0.625
1481274038540056,-4.6875,-3.5625,0.125
1481274038555079,-2.25,-2.875,-0.25
1481274038578018,0.9375,-1.875,-0.5
1481274038609020,0.875,-0.8125,-1.4375
1481274038615090,0.375,-0.375,-1.5
1481274038646025,1.4375,-0.3125,-1.0625
1481274038661536,-0.75,-0.125,-0.625
1481274038676083,-3.75,-0.25,0.0625
1481274038707088,-4.1875,-1.0625,-0.0625
1481274038721088,-2.75,-1.4375,0.0625
1481274038735131,2.0625,-1,0.5625
1481274038758090,4.8125,-0.25,0.0625
1481274038781143,3.125,0,-0.8125
1481274038818145,1.375,0.9375,-1.5625
1481274038821149,1.125,2.25,-2.125
1481274038847217,1.125,2.8125,-2
1481274038855154,1.6875,2.6875,-1.9375
1481274038885207,2.5,2.1875,-1.4375
1481274038901203,2.4375,1.6875,-0.5625
1481274038924202,-0.3125,1.375,0.9375
1481274038938207,-2.4375,1.375,1.625
1481274038961218,-3.3125,0.8125,2.125
1481274038983286,-3.9375,0.0625,2.4375
1481274038998287,-3,-0.3125,1.4375
1481274039021284,-1.5,-0.5625,0.5625
1481274039035285,0.25,-0.25,0.1875
1481274039058290,0.1875,0.25,-0.625
1481274039088336,-0.3125,0,-0.9375
1481274039102407,0.875,-0.4375,-0.75
1481274039118334,0.0625,-0.4375,-1
1481274039148343,-1.9375,0.125,-1.3125
1481274039162354,-2.3125,0.1875,-1.6875
1481274039178391,0.5625,-0.4375,-1.1875
1481274039201395,3.125,-0.8125,-0.875
1481274039222397,1.6875,-1.5625,-0.25
1481274039238395,-1.1875,-1.4375,0.125
1481274039262902,-1.8125,-0.9375,0.375
1481274039282528,-0.5,-0.5,0
1481274039298439,0.3125,-0.125,-0.4375
1481274039321442,0.75,-0.3125,-0.5
1481274039342443,0.3125,0,0.25
1481274039366450,-0.5,0.0625,0.375
1481274039381483,-3.5,0,-0.5
1481274039402599,-2.8125,0.125,-0.875
1481274039426486,2.3125,0.3125,-0.875
1481274039440485,3.3125,0.1875,-1
1481274039462502,0.9375,0.1875,-0.5
1481274039478708,-0.875,0.125,-0.6875
1481274039500711,-1.1875,-0.625,-0.625
1481274039522712,-0.125,-1.375,0.0625
1481274039537716,1.4375,-1.4375,0.6875
1481274039560727,-0.5,-0.8125,0.5
1481274039584748,-3.875,-0.4375,0.125
1481274039597750,-2.875,-0.25,-0.0625
1481274039620749,0.25,0,0.25
1481274039643752,1.4375,0.0625,0.3125
1481274039657755,-0.6875,0.3125,-0.125
1481274039680782,-1.8125,0.6875,-0.375
1481274039703783,0.8125,1.125,-0.8125
1481274039717785,1.25,1.25,-0.625
1481274039740789,0.9375,1.3125,-0.5625
1481274039763803,-0.0625,1.0625,-0.5
1481274039777941,-0.5,0.375,-0.4375
1481274039800942,-0.5,0.5,-0.3125
1481274039830945,0.0625,0.625,-0.25
1481274039837947,-0.75,0,0
1481274039861454,-1.125,0.5625,0.3125
1481274039884023,-1.125,0.9375,-0.125
1481274039898024,-0.8125,1.0625,-0.1875
