timestamp,x,y,z
1481274127010932,-0.0615234,-0.369629,0.947754
1481274127027441,-0.0532227,-0.387207,0.941895
1481274127055440,-0.0620117,-0.387695,0.952637
1481274127070445,-0.0634766,-0.383301,0.950684
1481274127086444,-0.0576172,-0.367188,0.954102
1481274127115456,-0.0639648,-0.381836,0.944336
1481274127130533,-0.0693359,-0.38623,0.943359
1481274127146458,-0.0639648,-0.390137,0.942383
1481274127169461,-0.0620117,-0.365723,0.951172
1481274127191496,-0.0629883,-0.369141,0.949707
1481274127207470,-0.0615234,-0.384277,0.956055
1481274127229476,-0.065918,-0.389648,0.967773
1481274127250547,-0.0629883,-0.385254,0.964355
1481274127266477,-0.0649414,-0.372559,0.970215
1481274127289478,-0.0673828,-0.368652,0.964355
1481274127310989,-0.0668945,-0.374512,0.971191
1481274127334495,-0.0566406,-0.381348,0.964355
1481274127349495,-0.0639648,-0.365723,0.962402
1481274127370569,-0.0698242,-0.364258,0.962402
1481274127394500,-0.0625,-0.370117,0.953125
1481274127433068,-0.0678711,-0.371094,0.955078
1481274127435068,-0.0683594,-0.36377,0.952148
1481274127448068,-0.0605469,-0.366211,0.95166
1481274127469070,-0.0610352,-0.368652,0.952637
1481274127490071,-0.0600586,-0.375977,0.948242
1481274127506658,-0.0561523,-0.380371,0.955566
1481274127529666,-0.0595703,-0.369141,0.950195
1481274127557668,-0.0615234,-0.369629,0.938965
1481274127566669,-0.0517578,-0.375488,0.944824
1481274127589668,-0.0556641,-0.378418,0.947266
1481274127610756,-0.0639648,-0.366699,0.944824
1481274127626763,-0.0644531,-0.374023,0.953125
1481274127649766,-0.0668945,-0.378906,0.95459
1481274127670766,-0.0644531,-0.372559,0.939453
1481274127686767,-0.0625,-0.366699,0.947754
1481274127709784,-0.0693359,-0.373535,0.952148
1481274127730792,-0.0678711,-0.385742,0.958008
1481274127746793,-0.0668945,-0.386719,0.951172
1481274127769793,-0.0644531,-0.379883,0.95166
1481274127790800,-0.0634766,-0.379883,0.952637
1481274127806381,-0.0742188,-0.371582,0.945801
1481274127836890,-0.0712891,-0.398926,0.951172
1481274127850891,-0.0683594,-0.38623,0.944824
1481274127865963,-0.0698242,-0.375977,0.95166
1481274127889890,-0.0786133,-0.365723,0.949219
1481274127910973,-0.0712891,-0.369629,0.947754
1481274127926642,-0.0708008,-0.374512,0.941406
1481274127949648,-0.0703125,-0.37207,0.948242
1481274127970651,-0.0664063,-0.378418,0.937012
1481274127986648,-0.0756836,-0.382324,0.941895
1481274128009230,-0.0751953,-0.375488,0.935547
1481274128030152,-0.0678711,-0.373047,0.935547
1481274128046144,-0.0751953,-0.368652,0.933105
1481274128069145,-0.0776367,-0.382813,0.937988
1481274128090228,-0.0761719,-0.382324,0.94043
1481274128114249,-0.0693359,-0.372559,0.948242
1481274128129244,-0.0786133,-0.381348,0.95166
1481274128150251,-0.078125,-0.378418,0.961426
1481274128166247,-0.090332,-0.369629,0.958496
1481274128189248,-0.0893555,-0.384766,0.948242
1481274128212254,-0.0932617,-0.396484,0.948242
1481274128233263,-0.0932617,-0.390625,0.95752
1481274128249263,-0.0932617,-0.381348,0.956543
1481274128279265,-0.0917969,-0.384766,0.963867
1481274128294268,-0.0898438,-0.407715,0.973633
1481274128309277,-0.0830078,-0.40918,0.96582
1481274128339285,-0.097168,-0.383789,0.969238
1481274128353285,-0.109375,-0.398438,0.972656
1481274128369287,-0.106934,-0.414063,0.962402
1481274128392288,-0.0991211,-0.397949,0.972656
1481274128413294,-0.105469,-0.377441,0.961426
1481274128429301,-0.108887,-0.38623,0.952637
1481274128452302,-0.103516,-0.385254,0.939941
1481274128473303,-0.102539,-0.368164,0.939941
1481274128489305,-0.102539,-0.372559,0.926758
1481274128512314,-0.10498,-0.378418,0.913086
1481274128533317,-0.104492,-0.375977,0.896973
1481274128557320,-0.104004,-0.380859,0.879395
1481274128572321,-0.11084,-0.40918,0.868164
1481274128593324,-0.101563,-0.422363,0.885742
1481274128617327,-0.0898438,-0.393066,0.875977
1481274128632329,-0.10791,-0.39209,0.865234
1481274128653332,-0.122559,-0.400391,0.868652
1481274128669334,-0.106934,-0.366211,0.884277
1481274128692337,-0.0888672,-0.351074,0.894043
1481274128720840,-0.0957031,-0.376953,0.910645
1481274128728841,-0.124023,-0.34668,0.92334
1481274128752845,-0.146973,-0.347656,0.928711
1481274128780848,-0.154785,-0.359375,0.932617
1481274128788849,-0.156738,-0.383301,0.918945
1481274128812352,-0.158203,-0.370117,0.933105
1481274128834855,-0.157715,-0.345215,0.920898
1481274128848857,-0.186035,-0.347168,0.930176
1481274128872359,-0.191406,-0.363281,0.913086
1481274128893362,-0.182617,-0.376953,0.917969
1481274128908865,-0.18457,-0.359863,0.916504
1481274128931367,-0.198242,-0.377441,0.918457
1481274128953370,-0.219238,-0.421875,0.93457
1481274128969372,-0.222656,-0.431641,0.937988
1481274128991374,-0.226074,-0.414551,0.938477
1481274129013378,-0.245605,-0.401855,0.94043
1481274129029379,-0.27832,-0.379395,0.933105
1481274129052382,-0.289063,-0.400391,0.929199
1481274129073385,-0.289063,-0.419434,0.925781
1481274129088887,-0.291016,-0.413574,0.918457
1481274129111390,-0.309082,-0.396484,0.897461
1481274129134893,-0.33252,-0.40625,0.893555
1481274129148895,-0.34082,-0.435059,0.873047
1481274129171397,-0.358887,-0.433594,0.864746
1481274129194900,-0.387695,-0.442383,0.868164
1481274129208903,-0.38623,-0.431641,0.870605
1481274129231405,-0.394043,-0.417969,0.862305
1481274129254908,-0.404785,-0.443848,0.851074
1481274129269910,-0.417969,-0.469238,0.859863
1481274129291413,-0.435547,-0.483887,0.862793
1481274129314922,-0.443359,-0.470215,0.884277
1481274129336924,-0.459473,-0.436523,0.865723
1481274129350925,-0.472168,-0.446289,0.857422
1481274129374926,-0.48291,-0.469238,0.879883
1481274129395941,-0.48584,-0.461914,0.85791
1481274129410941,-0.483887,-0.437988,0.809082
1481274129434943,-0.495117,-0.442383,0.753906
1481274129455955,-0.512207,-0.457031,0.75
1481274129470945,-0.501465,-0.433105,0.759766
1481274129494955,-0.500977,-0.407227,0.704102
1481274129522963,-0.526367,-0.447266,0.682129
1481274129539964,-0.529785,-0.491699,0.70166
1481274129554964,-0.525879,-0.5,0.685547
1481274129575965,-0.5625,-0.45459,0.667969
1481274129591975,-0.588379,-0.462891,0.664063
1481274129613983,-0.588379,-0.504395,0.65918
1481274129635986,-0.592773,-0.490234,0.643066
1481274129651987,-0.618164,-0.491699,0.643555
1481274129674987,-0.618164,-0.490723,0.625488
1481274129703010,-0.65625,-0.484375,0.605469
1481274129711004,-0.701172,-0.516602,0.586914
1481274129734003,-0.706055,-0.540527,0.555176
1481274129756006,-0.699707,-0.514648,0.515625
1481274129771007,-0.717773,-0.512207,0.501953
1481274129794516,-0.75,-0.517578,0.472656
1481274129816041,-0.760742,-0.512695,0.444824
1481274129831027,-0.762695,-0.479004,0.422852
1481274129855026,-0.790039,-0.476074,0.402344
1481274129876060,-0.807129,-0.506348,0.392578
1481274129906063,-0.781738,-0.501953,0.393066
1481274129914046,-0.762207,-0.467285,0.362305
1481274129936052,-0.763672,-0.478516,0.404297
1481274129951049,-0.814453,-0.543457,0.518555
1481274129974049,-0.714844,-0.366699,0.117188
1481274129996144,-0.869629,-0.451172,0.019043
1481274130011143,-1.05811,-0.54834,0.106934
1481274130034140,-1.06104,-0.5625,0.263672
1481274130055143,-0.942871,-0.419922,0.203125
1481274130071145,-0.944824,-0.444336,0.25
1481274130094154,-0.933594,-0.478027,0.230957
1481274130116994,-0.940918,-0.471191,0.212402
1481274130137997,-0.937012,-0.432617,0.190918
1481274130153996,-0.944824,-0.405762,0.165039
1481274130183577,-0.972168,-0.40625,0.126465
1481274130191577,-0.987305,-0.400879,0.111328
1481274130214082,-0.976074,-0.397949,0.0864258
1481274130237083,-0.949219,-0.371582,0.0512695
1481274130252087,-0.936035,-0.358887,0.0307617
1481274130274085,-0.945801,-0.357422,0.000488281
1481274130297157,-0.965332,-0.346191,-0.00732422
1481274130312158,-0.96582,-0.302734,-0.0239258
1481274130334159,-0.974609,-0.286133,-0.0463867
1481274130357160,-0.956055,-0.321777,-0.0546875
1481274130378161,-0.938965,-0.330078,-0.0649414
1481274130394169,-0.946289,-0.297852,-0.0893555
1481274130422847,-0.936035,-0.248535,-0.11084
1481274130437848,-0.95459,-0.219727,-0.137207
1481274130453848,-0.948242,-0.269043,-0.140625
1481274130476850,-0.93457,-0.294922,-0.136719
1481274130497987,-0.94873,-0.278809,-0.149414
1481274130521916,-0.960449,-0.246582,-0.157227
1481274130536917,-0.973145,-0.233887,-0.157715
1481274130557990,-0.960938,-0.223145,-0.159668
1481274130573919,-0.972168,-0.242188,-0.161133
1481274130597072,-0.963867,-0.254883,-0.160645
1481274130618075,-0.969727,-0.223633,-0.162598
1481274130634074,-0.997559,-0.213867,-0.17627
1481274130657076,-0.986328,-0.243164,-0.173828
1481274130678079,-0.964355,-0.211914,-0.195801
1481274130694092,-0.954102,-0.209961,-0.181641
1481274130717501,-0.973633,-0.256836,-0.168457
1481274130738512,-0.98877,-0.268066,-0.180664
1481274130753506,-0.97998,-0.222656,-0.187988
1481274130777505,-0.974121,-0.219727,-0.183594
1481274130798289,-0.96582,-0.24707,-0.172852
1481274130814220,-0.978516,-0.227051,-0.170898
1481274130836224,-0.979004,-0.227539,-0.166992
1481274130866227,-0.964355,-0.246582,-0.159668
1481274130874223,-0.960938,-0.236328,-0.158203
1481274130896329,-0.958984,-0.207031,-0.164551
1481274130918330,-0.97168,-0.227051,-0.153809
1481274130934330,-0.980957,-0.246094,-0.155762
1481274130956330,-0.97168,-0.242676,-0.149414
1481274130979333,-0.960938,-0.216797,-0.143555
1481274130994342,-0.949707,-0.229004,-0.141602
1481274131016848,-0.956543,-0.233887,-0.143066
1481274131039849,-0.963867,-0.21875,-0.133301
1481274131053849,-0.957031,-0.219727,-0.153809
1481274131076851,-0.955078,-0.23291,-0.153809
1481274131099865,-0.954102,-0.23291,-0.146973
1481274131113865,-0.946777,-0.21875,-0.15625
1481274131135879,-0.961914,-0.235352,-0.160156
1481274131159869,-0.968262,-0.25,-0.162598
1481274131173871,-0.967285,-0.234375,-0.154297
1481274131196884,-0.95752,-0.23291,-0.141602
1481274131219885,-0.961914,-0.23584,-0.152832
1481274131233888,-0.964355,-0.244629,-0.14502
1481274131256889,-0.97168,-0.241699,-0.133789
1481274131279889,-0.959473,-0.237793,-0.13623
1481274131293898,-0.968262,-0.236816,-0.138184
1481274131316478,-0.975098,-0.256348,-0.154297
1481274131339487,-0.960449,-0.246094,-0.13623
1481274131353479,-0.955566,-0.239258,-0.128418
1481274131376478,-0.963867,-0.257813,-0.137207
1481274131399509,-0.969238,-0.248047,-0.124023
1481274131413520,-0.97168,-0.23584,-0.125488
1481274131444513,-0.977539,-0.245605,-0.125
1481274131459512,-0.974121,-0.244629,-0.12793
1481274131473538,-0.959961,-0.222168,-0.132324
1481274131496592,-0.961426,-0.240234,-0.120117
1481274131519595,-0.959473,-0.25293,-0.115234
1481274131540668,-0.959473,-0.241211,-0.122559
1481274131556599,-0.966797,-0.224121,-0.130859
1481274131579599,-0.975098,-0.250977,-0.130859
1481274131616669,-0.97998,-0.262207,-0.124512
1481274131619666,-0.95752,-0.245117,-0.116211
1481274131639667,-0.958984,-0.229004,-0.126465
1481274131668701,-0.974121,-0.241699,-0.112793
1481274131684755,-0.974609,-0.266113,-0.108398
1481274131699829,-0.958496,-0.239258,-0.108887
1481274131721829,-0.955078,-0.239746,-0.114746
1481274131736832,-0.969238,-0.242188,-0.109375
1481274131759834,-0.963867,-0.228516,-0.0996094
1481274131782842,-0.955566,-0.234863,-0.109863
1481274131795843,-0.960938,-0.252441,-0.0991211
1481274131818937,-0.967285,-0.246582,-0.0917969
1481274131841021,-0.974121,-0.241211,-0.0966797
1481274131856941,-0.972168,-0.23584,-0.0966797
1481274131895455,-0.972656,-0.251953,-0.0883789
1481274131900464,-0.971191,-0.263672,-0.0893555
1481274131916465,-0.975098,-0.258301,-0.0844727
1481274131947467,-0.974121,-0.251953,-0.0932617
1481274131960477,-0.98584,-0.249023,-0.0981445
1481274131976468,-0.989258,-0.255859,-0.0927734
1481274131999147,-0.973145,-0.255371,-0.0952148
1481274132022144,-0.979492,-0.253906,-0.0917969
1481274132036147,-0.98584,-0.256348,-0.0810547
1481274132059141,-0.985352,-0.270996,-0.0820313
1481274132082148,-0.977051,-0.257813,-0.0878906
1481274132096650,-0.986816,-0.246582,-0.0825195
1481274132118658,-0.990723,-0.271973,-0.0913086
1481274132149660,-0.977539,-0.281738,-0.0664063
1481274132171685,-0.967773,-0.255371,-0.0625
1481274132187252,-0.98584,-0.253418,-0.059082
1481274132201764,-0.969727,-0.266602,-0.050293
1481274132216762,-0.95752,-0.223145,-0.0449219
1481274132238763,-0.974121,-0.239746,-0.0332031
1481274132261779,-0.974121,-0.297852,-0.00927734
1481274132283347,-0.959961,-0.291992,-0.0126953
1481274132298476,-0.969238,-0.246094,-0.0107422
1481274132322392,-0.977051,-0.26416,-0.000488281
1481274132343465,-0.97998,-0.317383,0.0307617
1481274132367394,-0.966797,-0.333008,0.0551758
1481274132382401,-0.946777,-0.248047,0.0463867
1481274132403498,-0.976563,-0.253906,0.0693359
1481274132418427,-1.00488,-0.351563,0.10498
1481274132442426,-0.954102,-0.370605,0.125488
1481274132463499,-0.925781,-0.212891,0.109863
1481274132478431,-0.956055,-0.23584,0.112305
1481274132502089,-0.983398,-0.365723,0.158691
1481274132523102,-0.982422,-0.396484,0.182617
1481274132539019,-0.966309,-0.348633,0.186035
1481274132562021,-0.951172,-0.273438,0.17334
1481274132583528,-0.969238,-0.331055,0.210938
1481274132607035,-0.961914,-0.39209,0.24707
1481274132622036,-0.964844,-0.369629,0.258789
1481274132643109,-0.965332,-0.357422,0.279297
1481274132667040,-0.942383,-0.366699,0.29541
1481274132682119,-0.91748,-0.352051,0.320313
1481274132702777,-0.920898,-0.330566,0.342773
1481274132726709,-0.906738,-0.342773,0.365234
1481274132741706,-0.884766,-0.352051,0.388184
1481274132762778,-0.881348,-0.354004,0.433594
1481274132778710,-0.880371,-0.375,0.449219
1481274132801808,-0.862793,-0.347168,0.446777
1481274132830878,-0.821777,-0.307617,0.486328
1481274132838805,-0.816406,-0.311035,0.518066
1481274132861808,-0.813965,-0.358398,0.541016
1481274132892388,-0.79541,-0.369141,0.5625
1481274132906911,-0.77002,-0.336914,0.595703
1481274132921911,-0.755859,-0.297363,0.61084
1481274132944912,-0.753906,-0.296875,0.612305
1481274132959913,-0.715332,-0.308594,0.652344
1481274132981914,-0.652832,-0.267578,0.70752
1481274133004368,-0.613281,-0.244629,0.734863
1481274133020366,-0.631348,-0.273926,0.777832
1481274133041368,-0.675781,-0.27832,0.806152
1481274133064369,-0.672852,-0.278809,0.812012
1481274133078377,-0.644043,-0.277344,0.793945
1481274133100971,-0.623047,-0.281738,0.791992
1481274133124973,-0.604004,-0.274902,0.788086
1481274133138973,-0.595703,-0.290039,0.812988
1481274133160976,-0.581055,-0.310547,0.839844
1481274133184554,-0.566406,-0.307129,0.836426
1481274133205563,-0.525879,-0.264648,0.830566
1481274133221562,-0.488281,-0.23877,0.811523
1481274133244564,-0.46582,-0.255859,0.858398
1481274133265631,-0.438965,-0.257813,0.890625
1481274133281566,-0.421875,-0.218262,0.880859
1481274133304178,-0.429688,-0.217285,0.897949
1481274133317177,-0.392578,-0.239258,0.90625
1481274133340181,-0.318359,-0.181152,0.912109
1481274133355253,-0.28125,-0.125488,0.92334
1481274133377252,-0.263672,-0.153809,0.965332
1481274133400338,-0.23584,-0.166016,0.961914
1481274133415340,-0.189941,-0.11084,0.961914
1481274133437414,-0.145996,-0.0576172,0.96582
1481274133460412,-0.132324,-0.078125,0.993652
1481274133475344,-0.108398,-0.074707,0.998047
1481274133498541,-0.0761719,-0.0219727,0.995605
1481274133520611,-0.0756836,-0.0107422,1.00049
1481274133534542,-0.0600586,-0.0336914,1.00098
1481274133557663,-0.0327148,-0.0249023,0.997559
1481274133580623,-0.012207,-0.0175781,1.00635
1481274133595055,-0.0117188,-0.0366211,0.98584
1481274133617598,0.00488281,-0.0229492,0.983398
1481274133640599,0.00927734,-0.00585938,0.985352
1481274133663638,0.0131836,-0.00976563,0.978516
1481274133677600,0.0112305,-0.0102539,0.973633
1481274133700676,0.0102539,0.00439453,0.977051
1481274133716676,-0.00634766,-0.0424805,0.98291
1481274133737747,-0.0200195,-0.0581055,0.978027
1481274133760750,-0.0170898,-0.0273438,0.972656
1481274133776679,-0.0249023,-0.0219727,0.979492
1481274133797694,-0.027832,-0.0571289,0.995605
1481274133829804,-0.0185547,-0.0615234,0.996094
1481274133834773,-0.012207,-0.0551758,1.00586
1481274133857722,-0.0219727,-0.0664063,0.996094
1481274133889268,-0.0146484,-0.0771484,1.00146
1481274133895233,-0.0253906,-0.0649414,1.00488
1481274133917780,-0.0126953,-0.0395508,1.02637
1481274133940849,-0.0102539,-0.0463867,1.05273
1481274133954851,-0.019043,-0.0810547,1.06445
1481274133977793,-0.0400391,-0.0854492,1.05322
1481274134000890,-0.0429688,-0.0600586,1.05078
1481274134014892,-0.0473633,-0.0507813,1.04932
1481274134037940,-0.046875,-0.0649414,1.04932
1481274134060967,-0.0556641,-0.0698242,1.03857
1481274134074896,-0.0546875,-0.0693359,1.04785
1481274134106135,-0.0380859,-0.0698242,1.04199
1481274134121072,-0.043457,-0.0703125,1.03027
1481274134135131,-0.0537109,-0.0732422,1.02637
1481274134166051,-0.0522461,-0.0898438,1.03955
1481274134189136,-0.0454102,-0.0834961,1.03516
1481274134203646,-0.0566406,-0.0805664,1.02734
1481274134218643,-0.0649414,-0.0869141,1.02344
1481274134240719,-0.0546875,-0.0869141,1.02588
1481274134254646,-0.0458984,-0.0805664,1.02686
1481274134277717,-0.0463867,-0.0712891,1.02881
1481274134301473,-0.059082,-0.0712891,1.03857
1481274134315393,-0.0532227,-0.0722656,1.04053
1481274134337467,-0.0263672,-0.0708008,1.0376
1481274134360467,-0.0244141,-0.0537109,1.0459
1481274134383906,-0.015625,-0.0537109,1.05713
1481274134397909,0.0102539,-0.0571289,1.05615
1481274134420558,0.0239258,-0.0498047,1.06006
1481274134435447,0.019043,-0.046875,1.06104
1481274134457519,0.0449219,-0.0258789,1.05908
1481274134480451,0.0629883,-0.0107422,1.07275
1481274134496456,0.0776367,-0.0253906,1.06885
1481274134517482,0.0791016,-0.0288086,1.06445
1481274134540552,0.105957,-0.00244141,1.05225
1481274134563530,0.139648,0.000976563,1.03662
1481274134577553,0.14209,-0.00244141,1.02588
1481274134601540,0.14209,0.00830078,1.00684
1481274134624517,0.169434,0.0292969,0.981934
1481274134637590,0.194824,0.034668,0.950684
1481274134660590,0.219727,0.0444336,0.94873
1481274134683521,0.248535,0.0800781,0.937012
1481274134697530,0.290039,0.0991211,0.938477
1481274134720106,0.325684,0.0854492,0.933594
1481274134743109,0.337402,0.100098,0.925781
1481274134757126,0.355957,0.120117,0.907715
1481274134780109,0.383301,0.124512,0.907715
1481274134811653,0.418457,0.126953,0.902832
1481274134817584,0.447754,0.128418,0.887207
1481274134848657,0.47168,0.127441,0.869629
1481274134863593,0.490723,0.168945,0.846191
1481274134877575,0.515625,0.185547,0.8125
1481274134899637,0.53418,0.169922,0.794922
1481274134923719,0.554688,0.151855,0.787598
1481274134937687,0.575195,0.17041,0.769531
1481274134959668,0.596191,0.182129,0.739746
1481274134983636,0.627441,0.171875,0.702637
1481274134997645,0.646484,0.173828,0.702637
1481274135020226,0.658691,0.189941,0.691406
1481274135051183,0.684082,0.211914,0.664063
1481274135057230,0.713867,0.196777,0.643555
1481274135080243,0.728027,0.160645,0.634277
1481274135103231,0.750488,0.159668,0.626953
1481274135125247,0.758301,0.180664,0.615723
1481274135140258,0.768555,0.191895,0.58252
1481274135163182,0.791504,0.166016,0.563965
1481274135177274,0.816406,0.141113,0.563477
1481274135200141,0.824219,0.143555,0.54248
1481274135223144,0.831055,0.131836,0.509766
1481274135237144,0.851074,0.132324,0.494629
1481274135260215,0.869629,0.151855,0.486328
1481274135283655,0.875977,0.161621,0.453613
1481274135297658,0.878418,0.137695,0.435059
1481274135328251,0.888184,0.0932617,0.433105
1481274135343229,0.904297,0.0727539,0.411133
1481274135358169,0.914551,0.0664063,0.376465
1481274135381169,0.908691,0.0678711,0.371094
1481274135402974,0.899414,0.0649414,0.330566
1481274135417948,0.922363,0.0537109,0.311035
1481274135441948,0.947754,0.0185547,0.302734
1481274135462952,0.938965,0.0146484,0.293945
1481274135477953,0.936035,0.0219727,0.268066
1481274135500012,0.937988,-0.00195313,0.251953
1481274135531086,0.94043,0.00878906,0.251465
1481274135538015,0.936035,0.00878906,0.231445
1481274135560086,0.932129,0.00537109,0.197266
1481274135583018,0.955078,-0.0229492,0.180176
1481274135605531,0.966797,-0.0151367,0.154297
1481274135620530,0.971191,-0.0175781,0.143066
1481274135643603,0.993164,-0.00927734,0.11084
1481274135658604,1.00586,0.0112305,0.0996094
1481274135680578,1.01514,-0.00976563,0.0957031
1481274135703363,1.02686,-0.0366211,0.0942383
1481274135719293,1.02441,-0.0620117,0.0908203
1481274135740368,1.02246,-0.0556641,0.0859375
1481274135771368,1.00488,-0.034668,0.103027
1481274135777370,0.97168,-0.0263672,0.130371
1481274135799806,0.979004,-0.0419922,0.111328
1481274135831815,0.996582,-0.0415039,0.0927734
1481274135837887,0.981445,-0.0234375,0.102051
1481274135859843,0.97168,0.0307617,0.0869141
1481274135884321,0.980469,-0.000488281,0.081543
1481274135897824,0.956543,0.00878906,0.0864258
1481274135919901,0.922363,0.0224609,0.125
1481274135942896,0.929688,0.0219727,0.126953
1481274135960833,0.95166,-0.0151367,0.117188
1481274135979838,0.958008,-0.0126953,0.104004
1481274136002664,0.971191,0.0180664,0.115723
1481274136017676,0.969238,0.0283203,0.109863
1481274136048601,0.980957,-0.00292969,0.103516
1481274136062674,1,-0.0146484,0.11084
1481274136077670,0.991211,-0.000488281,0.125
1481274136107809,0.984375,-0.0112305,0.118164
1481274136122810,0.993164,-0.0136719,0.128418
1481274136140741,0.993652,-0.0117188,0.126953
1481274136161742,0.986816,-0.012207,0.121094
1481274136182745,0.996094,-0.0249023,0.11377
1481274136197753,1.00244,-0.0283203,0.117676
1481274136220262,0.982422,-0.0253906,0.12207
1481274136251304,0.971191,-0.0224609,0.124512
1481274136257333,0.978516,-0.0327148,0.123047
1481274136280347,0.97168,-0.0371094,0.116699
1481274136311015,0.981445,-0.0439453,0.12207
1481274136326016,0.975098,-0.027832,0.122559
1481274136340025,0.973145,-0.0273438,0.127441
1481274136362947,0.969238,-0.0424805,0.123047
1481274136385954,0.974121,-0.0405273,0.118652
1481274136400469,0.982422,-0.0327148,0.115234
1481274136422534,0.980469,-0.0297852,0.12207
1481274136440465,0.981445,-0.0229492,0.125977
1481274136460546,0.999023,-0.0341797,0.128906
1481274136491546,0.973633,-0.0131836,0.134766
1481274136497547,0.955566,-0.0078125,0.147949
1481274136520327,0.977051,-0.0180664,0.143066
1481274136550234,0.968262,-0.0332031,0.151367
1481274136565237,0.944336,-0.0371094,0.165039
1481274136580319,0.970215,-0.0263672,0.17627
1481274136604352,0.989258,-0.0249023,0.178711
1481274136625371,0.958008,-0.0234375,0.199707
1481274136640426,0.945801,-0.046875,0.22998
1481274136664355,0.969238,-0.0454102,0.217773
1481274136685936,0.955566,-0.0375977,0.231445
1481274136700441,0.950684,-0.0268555,0.248535
1481274136722552,0.953125,-0.027832,0.283203
1481274136753574,0.960938,-0.0317383,0.291504
1481274136768507,0.974609,-0.0336914,0.307617
1481274136782510,0.952148,-0.0380859,0.332031
1481274136804641,0.916992,-0.050293,0.357422
1481274136828576,0.918945,-0.0551758,0.373047
1481274136843592,0.896973,-0.0356445,0.372559
1481274136864659,0.871094,-0.0341797,0.38916
1481274136882576,0.844727,-0.0112305,0.415039
1481274136902813,0.83252,-0.00683594,0.442871
1481274136924815,0.834473,-0.027832,0.449707
1481274136942711,0.841797,-0.0214844,0.465332
1481274136962712,0.833008,-0.0117188,0.508789
1481274136994291,0.81543,0.000488281,0.513672
1481274137000792,0.804199,0.00195313,0.509766
1481274137022265,0.791016,-0.00537109,0.546387
1481274137046217,0.788574,0.00878906,0.587402
1481274137060286,0.77832,0.0288086,0.60498
1481274137082216,0.770996,0.0107422,0.633301
1481274137107785,0.763672,0,0.672363
1481274137122791,0.724609,-0.0214844,0.687988
1481274137150790,0.679688,-0.00732422,0.683594
1481274137164792,0.657227,0.0258789,0.700195
1481274137179874,0.662109,0.0673828,0.72998
1481274137202373,0.639648,0.043457,0.756836
1481274137225380,0.623535,0.000976563,0.78418
1481274137240378,0.614258,-0.00927734,0.793457
1481274137270379,0.58252,0,0.811523
1481274137285451,0.542969,0.0166016,0.827148
1481274137300467,0.551758,0.0205078,0.828125
1481274137322472,0.563477,0.0322266,0.82959
1481274137345473,0.54248,0.0385742,0.845703
1481274137360490,0.509766,0.0341797,0.865234
1481274137382474,0.491699,0.0239258,0.880371
1481274137405156,0.466797,0.0297852,0.893555
1481274137420171,0.433594,0.0288086,0.899414
1481274137442150,0.412598,0.0219727,0.927734
1481274137473160,0.387695,0.0263672,0.953125
1481274137481091,0.343262,0.00634766,0.96875
1481274137510283,0.306641,-0.0219727,0.981445
1481274137525185,0.264648,-0.0322266,0.986816
1481274137549185,0.235352,-0.0473633,0.984375
1481274137562259,0.214355,-0.0366211,0.977051
1481274137585186,0.177734,-0.0288086,0.988281
1481274137601196,0.133789,-0.0512695,0.986328
1481274137622236,0.0893555,-0.0825195,1.00977
1481274137645242,0.0571289,-0.103516,1.02246
1481274137663226,0.0385742,-0.0961914,1.02783
1481274137682227,0.0126953,-0.104004,1.02588
1481274137713328,-0.00683594,-0.114258,1.01416
1481274137721331,-0.0351563,-0.119629,1.0166
1481274137742408,-0.0507813,-0.113281,1.03125
1481274137773408,-0.0390625,-0.119141,1.0376
1481274137781336,-0.0292969,-0.149902,1.01025
1481274137802536,-0.0717773,-0.165527,1.01807
1481274137825469,-0.108887,-0.164063,1.02832
1481274137841468,-0.11084,-0.141113,1.02051
1481274137862539,-0.11084,-0.13916,1.02148
1481274137885470,-0.112793,-0.157227,1.03125
1481274137907974,-0.108887,-0.15918,1.0332
1481274137922975,-0.115234,-0.152832,1.03027
1481274137945045,-0.145996,-0.173828,1.03467
1481274137967953,-0.150391,-0.170898,1.04297
1481274137991034,-0.140137,-0.138184,1.02197
1481274138005562,-0.158691,-0.132324,1.01123
1481274138027631,-0.179199,-0.154785,1.02832
1481274138050582,-0.169434,-0.158691,1.02002
1481274138064564,-0.161133,-0.15625,1.00342
1481274138081561,-0.17041,-0.157715,1.02051
1481274138105682,-0.157227,-0.161133,1.02539
1481274138126683,-0.143555,-0.145508,1.0249
1481274138141685,-0.150391,-0.132813,1.01074
1481274138162754,-0.140137,-0.14209,1.03076
1481274138184714,-0.137207,-0.152344,1.04199
1481274138201697,-0.138184,-0.163086,1.03271
1481274138222206,-0.138184,-0.177734,1.02881
1481274138245204,-0.133301,-0.17041,1.00977
1481274138269207,-0.132324,-0.163574,1.00439
1481274138282208,-0.125,-0.166992,0.998047
1481274138304857,-0.121582,-0.17041,1.00098
1481274138327820,-0.121094,-0.168945,0.991211
1481274138342887,-0.129395,-0.168457,0.996094
1481274138364825,-0.13623,-0.175293,1.00195
1481274138387912,-0.130859,-0.171875,1.01367
1481274138402941,-0.125977,-0.165527,1.00928
1481274138434935,-0.134277,-0.161133,1.00586
1481274138447939,-0.150391,-0.155273,1.01074
1481274138463936,-0.137207,-0.168457,1.01172
1481274138493518,-0.123535,-0.170898,1.00781
1481274138509049,-0.136719,-0.17041,0.999023
1481274138524049,-0.130859,-0.179199,0.994629
1481274138546117,-0.118652,-0.179688,1.00146
1481274138567053,-0.112305,-0.164551,0.986816
1481274138584053,-0.119141,-0.163086,0.986816
1481274138605159,-0.12793,-0.181152,0.997559
1481274138628159,-0.106934,-0.173828,0.995605
1481274138644158,-0.0952148,-0.155273,0.996094
1481274138665159,-0.0927734,-0.157715,0.993164
1481274138696760,-0.0927734,-0.171387,1.00488
1481274138711295,-0.0864258,-0.166504,1.00635
1481274138725362,-0.0922852,-0.152344,1.00195
1481274138747295,-0.105469,-0.157715,0.992676
1481274138771293,-0.108398,-0.169434,0.992188
1481274138785297,-0.0991211,-0.157715,0.992676
1481274138807815,-0.0893555,-0.161133,0.989258
1481274138825816,-0.0859375,-0.150879,1.00586
1481274138844818,-0.0913086,-0.146484,0.998047
1481274138867818,-0.0917969,-0.166504,0.992676
1481274138885818,-0.09375,-0.171875,1.00781
1481274138904922,-0.0908203,-0.162598,1.01025
1481274138927844,-0.0947266,-0.149414,1.00732
1481274138943843,-0.0981445,-0.152832,1.01318
1481274138964845,-0.0874023,-0.162109,1.0166
1481274138989351,-0.0898438,-0.159668,1.02197
1481274139003812,-0.0961914,-0.15625,1.01855
1481274139024814,-0.0883789,-0.151855,1.02344
1481274139048814,-0.0898438,-0.142578,1.021
1481274139063817,-0.0957031,-0.133789,1.02051
1481274139086815,-0.0991211,-0.139648,1.02051
1481274139107705,-0.104004,-0.148926,1.02637
1481274139123695,-0.104004,-0.148438,1.0249
1481274139144758,-0.105957,-0.143555,1.02002
1481274139167688,-0.0957031,-0.140137,1.02393
1481274139183688,-0.100098,-0.145508,1.01953
1481274139213599,-0.103516,-0.148438,1.021
1481274139227668,-0.100098,-0.152344,1.01904
1481274139243600,-0.105469,-0.151367,1.02344
1481274139268600,-0.101563,-0.153809,1.02734
1481274139289198,-0.105957,-0.153809,1.01074
1481274139303708,-0.105957,-0.150879,1.00391
1481274139327708,-0.101563,-0.152832,1.01318
1481274139347709,-0.102539,-0.15625,1.00732
1481274139363709,-0.103516,-0.159668,1.00488
1481274139386711,-0.0961914,-0.162109,1.00391
1481274139407259,-0.0927734,-0.156738,0.998535
1481274139438259,-0.0932617,-0.157227,0.99707
1481274139446260,-0.0986328,-0.162598,0.997559
1481274139467261,-0.100586,-0.161621,0.993164
1481274139491845,-0.097168,-0.154785,0.994629
1481274139506406,-0.0932617,-0.161133,1.01025
1481274139527478,-0.0942383,-0.158691,1.01367
1481274139545409,-0.101074,-0.157715,1.00684
1481274139566410,-0.0957031,-0.159668,1.01416
1481274139587992,-0.0932617,-0.162598,1.02002
1481274139603723,-0.0888672,-0.162598,1.00635
1481274139626710,-0.097168,-0.158203,1.0127
1481274139647712,-0.0908203,-0.15625,1.00781
1481274139663759,-0.0898438,-0.147949,1.00488
1481274139686713,-0.0854492,-0.157715,1.00781
1481274139716234,-0.0961914,-0.161621,1.00684
1481274139724229,-0.0874023,-0.158203,1.01074
1481274139746267,-0.0849609,-0.156738,1.00732
1481274139767231,-0.0961914,-0.15332,1.01563
1481274139784232,-0.090332,-0.168457,1.01465
1481274139821112,-0.0932617,-0.165527,1.01367
1481274139827103,-0.0898438,-0.158203,1.01221
1481274139844032,-0.0922852,-0.15918,1.01123
1481274139873047,-0.0922852,-0.15918,1.01221
1481274139896046,-0.0888672,-0.163086,1.01904
