timestamp,emg1,emg2,emg3,emg4,emg5,emg6,emg7,emg8
1481274127011432,-1,1,0,-4,-22,-8,-7,-3
1481274127011432,1,-1,-1,2,24,2,-2,1
1481274127026438,-1,-1,-1,-1,14,0,1,1
1481274127026438,0,-2,-4,-2,-3,-2,0,-1
1481274127027441,1,-1,2,3,11,-1,2,-1
1481274127027441,-1,-4,-2,5,-33,-3,1,-3
1481274127040441,0,0,-8,-26,-4,-4,-4,-3
1481274127040441,-2,-3,-1,-3,-11,4,-2,-3
1481274127056442,-1,0,-4,-2,11,-2,-3,-2
1481274127056442,-1,4,7,12,1,-1,-1,0
1481274127062441,-1,-1,-9,-10,-3,6,0,1
1481274127062441,-2,-1,1,0,-8,-5,-2,-3
1481274127071441,-1,-1,0,-4,-8,1,0,-1
1481274127071441,1,-2,-4,-2,13,-4,-2,-2
1481274127085445,-3,-1,2,3,-8,-1,-2,-3
1481274127085445,1,0,0,1,-2,-5,-1,0
1481274127092442,-2,-1,-1,-1,2,1,-2,1
1481274127092442,-2,-3,-1,-3,-5,-5,-2,0
1481274127099949,0,1,2,6,9,3,5,-2
1481274127099949,2,1,2,5,-7,2,0,0
1481274127116458,0,0,-4,-4,21,0,-2,0
1481274127116458,-2,-1,-2,1,-3,2,0,-1
1481274127122457,-1,0,2,0,-11,-3,-1,0
1481274127122457,-1,0,3,3,15,-3,-3,0
1481274127131457,0,0,-4,-3,-65,-6,-3,-2
1481274127131457,1,2,4,7,26,12,2,0
1481274127145460,-1,-2,-5,5,6,-4,3,-1
1481274127145460,0,-1,-3,-21,-22,-4,-1,0
1481274127152459,-3,-2,-6,6,25,2,-3,-1
1481274127152459,0,-3,-1,1,-10,-7,-4,-3
1481274127168535,-3,-3,2,1,-7,1,-3,0
1481274127168535,-1,-2,0,1,2,3,-4,-2
1481274127170465,0,-2,-1,-2,10,-4,-1,0
1481274127170465,1,0,-4,-3,-19,0,7,0
1481274127182532,0,2,1,-3,19,3,0,-1
1481274127182532,-2,-2,-4,2,-13,-5,-6,0
1481274127197461,-1,0,4,2,27,3,0,-1
1481274127197461,1,0,-1,1,8,-4,-3,-1
1481274127205970,0,0,3,3,-9,0,-3,1
1481274127205970,-3,-3,-1,1,2,6,4,-2
1481274127212469,1,0,1,0,-14,1,2,0
1481274127212469,-1,0,-3,-12,2,-2,-3,0
1481274127228549,0,-1,-1,1,22,-5,-5,0
1481274127228549,-2,0,5,24,4,-5,-1,-2
1481274127230478,-2,-1,-9,-38,-3,2,-3,-2
1481274127230478,-2,-2,8,22,-7,2,12,1
1481274127242550,-1,-4,-27,-51,-50,-6,-4,-3
1481274127242550,0,0,1,15,56,4,2,0
1481274127251478,-1,-1,4,8,-12,-4,1,0
1481274127251478,0,-2,-3,-9,-18,-4,-11,-3
1481274127265549,-1,0,8,24,33,-3,-1,1
1481274127265549,0,-2,-4,-16,-12,2,1,0
1481274127280481,-1,1,0,2,2,-10,-4,-2
1481274127280481,0,3,1,-4,11,5,1,0
1481274127288497,0,-1,0,9,-16,-6,1,-1
1481274127288497,-1,-1,-3,-9,-7,0,-1,0
1481274127290481,-1,-1,4,10,18,6,-3,-2
1481274127290481,1,0,-4,-6,-21,-9,-2,0
1481274127302487,-1,-2,4,3,11,5,0,0
1481274127302487,0,0,-3,-2,-9,-3,2,1
1481274127311487,0,0,0,2,-13,-2,-3,-1
1481274127311487,-3,-1,-3,-7,-15,-4,-1,2
1481274127333565,0,-2,1,-4,21,7,3,-2
1481274127333565,-1,-4,-8,-24,-11,-2,3,-1
1481274127335494,0,-1,4,23,-13,-4,-7,-1
1481274127335494,-1,0,-1,-27,5,1,-5,-2
1481274127348566,-2,-1,-3,10,-12,-8,-2,-1
1481274127348566,-1,-1,2,12,32,6,-1,-2
1481274127350495,1,-1,-5,-7,-7,-1,5,0
1481274127350495,-2,-4,1,6,7,2,0,-2
1481274127362497,0,0,2,-5,-25,-1,-2,1
1481274127362497,-2,-2,-1,-2,-6,1,1,-1
1481274127371498,1,-1,1,0,8,-1,0,0
1481274127371498,0,-1,0,6,-1,-2,-2,-1
1481274127393498,-1,-1,3,0,-2,-1,2,-3
1481274127393498,-1,-1,-6,-5,-13,-5,-6,-2
1481274127395500,-1,-1,0,4,-20,-3,2,0
1481274127395500,-1,-1,2,-2,25,3,-1,0
1481274127423067,0,-2,-3,0,-7,-1,-1,-3
1481274127423067,-2,1,3,3,-8,2,1,1
1481274127433068,-2,-4,-4,-8,-7,-1,-1,-2
1481274127433068,-1,-1,0,8,14,-6,-4,-1
1481274127434068,-1,-1,2,6,10,0,1,-1
1481274127434068,0,-1,-1,-7,-5,-4,1,0
1481274127446069,-1,2,-1,-7,3,-4,0,2
1481274127446069,-2,-1,-3,8,-15,3,1,-3
1481274127447070,0,0,1,-1,-2,0,-8,0
1481274127447070,0,0,-1,-1,-16,-2,-2,-1
1481274127452068,0,-1,2,-1,8,0,1,-1
1481274127452068,0,-2,-3,2,-8,-3,1,-1
1481274127469070,-1,0,2,3,3,-3,-4,-1
1481274127469070,-1,-1,-8,-28,-2,-2,-3,-2
1481274127470069,-1,0,-5,-2,1,1,-2,-1
1481274127470069,-1,-1,1,6,0,4,-1,-1
1481274127482069,-1,0,3,7,5,2,7,3
1481274127482069,-2,-3,-4,-6,-23,-4,-1,-1
1481274127491070,0,-2,1,4,33,1,0,1
1481274127491070,0,0,-7,-7,-1,-1,-2,0
1481274127505658,0,-2,0,0,3,2,-3,-2
1481274127505658,0,2,3,5,-6,1,-1,2
1481274127512660,0,-2,-3,0,25,-1,0,-2
1481274127512660,-1,-2,-1,3,2,1,2,-2
1481274127528666,0,0,-2,-8,-13,1,6,2
1481274127528666,-2,0,2,5,-10,-1,5,1
1481274127530667,-2,2,-1,1,18,1,-2,-1
1481274127530667,-1,0,1,-2,4,-6,-4,0
1481274127542665,-1,-2,-1,4,-5,3,2,-2
1481274127542665,0,-1,-1,-9,-8,3,-1,-2
1481274127558667,-2,-3,-5,-8,13,0,-3,-3
1481274127558667,-3,-1,-3,-7,-22,-1,-2,1
1481274127565744,-1,1,-1,3,0,-3,-3,0
1481274127565744,-1,-2,9,16,10,-1,-3,0
1481274127572668,0,-2,3,6,-24,0,0,-3
1481274127572668,-3,-4,-20,-40,3,-7,-4,-2
1481274127588668,-1,-1,-3,0,-4,-2,1,0
1481274127588668,0,-1,0,4,-6,-1,-1,0
1481274127590670,-1,0,2,5,-6,3,6,-1
1481274127590670,1,-1,3,6,-3,4,0,-2
1481274127602756,-2,0,1,2,6,-1,-3,-2
1481274127602756,-1,0,-1,4,17,-1,2,-1
1481274127611756,0,-1,0,-5,-21,-2,-2,0
1481274127611756,2,0,3,7,3,-2,-1,0
1481274127625764,-1,-1,-2,-7,-19,-3,-3,-2
1481274127625764,0,0,-1,7,24,4,2,2
1481274127632777,0,-1,-3,-14,-26,-6,-4,0
1481274127632777,-3,-1,3,17,49,5,2,-1
1481274127648840,0,-2,-2,-9,-19,-6,-3,0
1481274127648840,-1,0,2,5,9,-7,-9,-3
1481274127650766,0,-1,4,6,-10,-1,-7,0
1481274127650766,0,-1,-8,-8,-23,-6,0,0
1481274127662765,1,0,2,3,14,4,-1,0
1481274127662765,-2,-1,-3,0,2,-4,-3,-1
1481274127671766,-1,1,-1,-3,-5,3,1,1
1481274127671766,0,0,3,2,-12,-5,-1,-1
1481274127685768,-1,0,-2,-9,6,-3,0,0
1481274127685768,0,0,0,11,5,-1,3,-2
1481274127692802,-1,-2,-3,-9,3,-1,-1,-1
1481274127692802,-2,-1,-1,-3,-61,-4,-2,-2
1481274127708784,0,-4,-2,-1,44,8,1,0
1481274127708784,-2,-3,-2,-4,-25,-5,-1,-1
1481274127710785,0,0,-3,1,17,-1,-2,0
1481274127710785,-1,2,1,-2,-9,-2,0,1
1481274127722796,0,1,2,5,6,-7,-10,0
1481274127722796,1,-1,0,-2,-16,1,4,2
1481274127731791,1,-1,-3,-7,-10,0,2,-1
1481274127731791,0,-4,1,6,31,-1,-6,-3
1481274127745861,2,0,1,-1,-75,-7,2,-1
1481274127745861,1,0,0,1,74,4,-2,0
1481274127752794,1,-1,-2,-5,-23,-1,1,-1
1481274127752794,-3,-1,-1,-2,-1,-1,0,-2
1481274127768792,-3,-3,-2,4,-10,7,-2,-5
1481274127768792,-2,-1,4,-8,-33,-1,3,0
1481274127769793,-3,-3,-19,-13,4,-6,1,0
1481274127769793,0,-1,3,9,4,5,-1,2
1481274127782804,0,1,0,-9,17,2,4,0
1481274127782804,-2,-1,2,7,3,-5,-3,-3
1481274127791794,-2,0,3,1,-25,5,7,1
1481274127791794,0,-1,-4,-7,-17,-2,-1,0
1481274127805881,-1,-1,-4,1,35,-2,-5,-1
1481274127805881,1,0,-5,-2,-1,2,4,0
1481274127812882,-1,-1,2,2,-11,-3,-2,-3
1481274127812882,-1,0,-2,-8,-35,-3,-2,-1
1481274127836890,0,1,4,14,99,2,0,-1
1481274127836890,-2,-3,-5,-12,-66,-9,-5,-3
1481274127837887,0,-1,4,10,62,16,5,1
1481274127837887,-1,-1,1,4,13,0,1,-1
1481274127842931,-2,-3,-5,-12,-8,-8,-4,-1
1481274127842931,3,0,0,-4,-11,1,-1,-1
1481274127850891,-2,0,2,0,-24,-8,-7,-3
1481274127850891,0,-2,-1,-4,-26,-1,-1,-2
1481274127865963,-1,1,1,8,51,5,-3,0
1481274127865963,-1,-2,-5,-6,-9,-3,-4,0
1481274127872891,-1,-2,3,4,-1,-4,-4,-3
1481274127872891,-2,0,-1,-4,-2,4,3,0
1481274127888980,0,0,0,4,-27,-5,-1,0
1481274127888980,0,0,1,2,0,6,3,-1
1481274127889890,0,-1,1,-8,0,-2,-1,-1
1481274127889890,0,-5,-6,-9,9,3,-2,-3
1481274127902471,-2,-2,-1,14,20,-2,0,-1
1481274127902471,-1,0,0,-9,-34,3,-1,0
1481274127911471,-1,0,-4,-3,-48,-3,-2,-1
1481274127911471,0,1,3,8,74,0,6,1
1481274127925779,-3,-4,-2,-7,-34,4,3,-1
1481274127925779,-1,-1,0,-4,-23,-2,-1,-1
1481274127932715,-2,0,-1,4,8,0,-4,0
1481274127932715,-2,-3,-1,-6,3,0,-1,0
1481274127948716,0,2,-1,3,-42,-2,2,-1
1481274127948716,-2,-2,-1,7,12,5,4,-1
1481274127950644,1,0,-1,-8,-16,0,0,0
1481274127950644,0,-1,0,4,2,-2,-3,1
1481274127962715,-1,-4,-3,-3,10,0,0,-1
1481274127962715,-1,0,-2,-6,16,2,-2,-1
1481274127971646,0,-2,2,6,8,-3,-2,-2
1481274127971646,0,1,3,26,43,6,6,2
1481274127985647,-1,-4,-7,-45,-49,-12,-11,-4
1481274127985647,0,-1,-6,3,-12,-4,-2,-2
1481274128000228,-3,-2,-6,3,51,1,1,-2
1481274128000228,-1,-2,0,6,-4,-5,-4,1
1481274128008229,2,2,3,4,-13,0,3,2
1481274128008229,-3,-1,1,4,21,1,1,0
1481274128015144,-1,0,0,-3,-23,-5,-2,-1
1481274128015144,-1,0,-2,-13,-42,1,2,0
1481274128022144,-1,-1,-1,0,-7,-1,1,0
1481274128022144,-1,1,-1,-3,18,-2,-2,-1
1481274128031149,-1,0,2,7,-6,-2,0,-2
1481274128031149,0,1,0,-15,-32,-5,-1,-2
1481274128045145,1,-2,-1,5,33,4,2,1
1481274128045145,-1,-1,-1,7,28,-5,-4,-1
1481274128052147,-2,-1,-1,-5,-24,-4,-7,0
1481274128052147,0,1,-1,-5,5,-3,-5,-3
1481274128068144,-1,-1,-1,5,-22,3,8,0
1481274128068144,1,-2,2,4,21,5,-2,-2
1481274128075145,0,-2,-5,-3,32,-1,0,0
1481274128075145,-1,2,1,5,-18,-2,-3,-1
1481274128082147,1,-1,2,-3,-2,0,-1,-1
1481274128082147,1,0,-1,-3,-11,-4,-1,1
1481274128091152,-2,-2,0,1,3,0,0,-1
1481274128091152,0,-4,-1,0,-4,1,-1,0
1481274128113738,-1,0,0,-1,23,0,-2,-3
1481274128113738,-1,-1,-1,3,-25,0,-1,-2
1481274128115243,1,3,-1,-7,-10,-5,-10,-2
1481274128115243,-3,2,1,6,21,0,2,-1
1481274128128246,-1,2,2,-2,-6,-2,-3,-1
1481274128128246,-1,0,1,-8,-9,-4,3,3
1481274128135245,0,-1,0,9,20,-1,-1,-1
1481274128135245,1,-1,1,9,-16,-3,-1,-1
1481274128142245,-3,-1,-1,-18,-14,-1,-2,-1
1481274128142245,-4,-2,-2,3,34,2,-1,-1
1481274128151245,0,-3,-4,-7,-12,3,5,2
1481274128151245,0,-1,-1,0,-3,2,2,-1
1481274128165249,-1,-2,-4,4,-8,-4,-3,-2
1481274128165249,0,1,0,-9,-17,-2,-2,-1
1481274128172250,-1,-2,3,-1,20,3,-1,0
1481274128172250,-1,1,2,2,51,3,2,1
1481274128188329,-1,-3,-2,1,-44,-1,6,0
1481274128188329,-1,-1,2,0,-1,-5,-3,-1
1481274128195248,0,0,1,-2,51,-2,-1,-1
1481274128195248,0,-2,-5,-4,12,0,-2,1
1481274128211754,-1,-3,0,0,-18,1,0,1
1481274128211754,0,-1,-1,0,1,0,-2,-2
1481274128213254,0,-3,0,-1,-12,-2,2,-2
1481274128213254,-2,-3,-1,7,0,-2,-4,-2
1481274128225261,0,-1,-2,-24,8,-4,-11,-1
1481274128225261,-1,-1,-2,5,15,1,1,1
1481274128234271,-1,-1,2,3,-11,-1,-2,-2
1481274128234271,-1,-1,-3,-7,1,0,3,-1
1481274128248262,-2,-1,-1,15,-4,1,2,-2
1481274128248262,-3,-3,-4,-15,-15,6,8,-2
1481274128255263,-2,0,-1,7,-6,2,2,0
1481274128255263,-1,-3,2,-8,-15,-6,-4,0
1481274128278340,1,-1,1,9,18,0,0,0
1481274128278340,-1,1,-1,-6,-14,-4,-2,-1
1481274128280265,-1,-3,-1,12,-16,-1,3,1
1481274128280265,-2,0,-1,-22,-27,-3,2,-1
1481274128293266,-1,1,4,9,21,1,-1,-1
1481274128293266,-1,-4,-13,-15,-21,8,2,-2
1481274128295267,0,0,6,0,-24,-11,-3,0
1481274128295267,0,-1,-4,-4,68,2,-9,-2
1481274128308276,-1,-1,0,5,-29,-2,1,-2
1481274128308276,1,0,0,-2,24,-3,-6,0
1481274128315283,-1,0,-4,-13,-16,3,-1,-2
1481274128315283,-2,-1,0,2,-22,-2,-3,-2
1481274128338285,1,0,-3,-1,12,-3,1,3
1481274128338285,1,-1,2,15,12,-3,1,-2
1481274128340285,0,0,-8,-18,-15,-4,-2,-2
1481274128340285,-1,0,1,5,-3,-3,-3,0
1481274128345285,0,2,-3,5,21,-3,-1,1
1481274128345285,0,1,4,4,-13,-9,-5,0
1481274128354285,-1,-1,-3,1,-46,5,2,0
1481274128354285,0,0,-2,-4,46,1,0,0
1481274128368287,-1,-2,-6,-4,-27,-1,-2,-2
1481274128368287,-3,0,1,8,10,1,0,-1
1481274128375287,-2,0,0,-1,-10,3,-1,-2
1481274128375287,-2,-3,-4,0,-19,-6,-5,-1
1481274128391288,-1,-1,4,-4,8,-2,-1,1
1481274128391288,-1,1,1,-1,16,-2,-5,-3
1481274128392288,-1,-1,-1,2,-2,-2,0,-2
1481274128392288,-2,-1,0,0,-19,-2,-1,-1
1481274128405294,-2,-1,-3,-4,-3,-1,-3,0
1481274128405294,0,-2,0,-3,-35,-5,-3,-2
1481274128414295,0,1,1,4,82,3,1,1
1481274128414295,1,1,0,5,-6,-4,-7,-1
1481274128428301,-1,-3,-5,-19,-7,-4,2,-1
1481274128428301,1,0,1,14,38,3,1,-1
1481274128442301,-1,-1,-1,1,5,-5,-4,0
1481274128442301,-2,0,-1,5,-29,-3,-4,-3
1481274128451302,-1,0,2,3,14,4,2,-2
1481274128451302,-1,1,2,-1,4,-5,0,-1
1481274128452302,-1,-2,-2,-2,-9,-4,-3,1
1481274128452302,0,0,-2,-11,-15,6,8,3
1481274128465303,-2,-2,-2,-1,-6,6,1,0
1481274128465303,1,-1,1,-2,-1,-4,-3,2
1481274128474304,-3,-1,-1,-3,-49,-2,1,0
1481274128474304,-1,-3,0,-3,46,7,9,2
1481274128488305,-1,-1,0,3,-5,-1,-2,-2
1481274128488305,-1,-3,-2,-2,-4,-2,-1,-1
1481274128502815,1,-1,-3,-2,2,3,1,-1
1481274128502815,0,2,-1,-1,-11,-2,0,0
1481274128511314,1,1,-2,-2,-15,2,11,3
1481274128511314,1,2,1,4,14,1,0,0
1481274128513314,0,-2,-3,-10,-32,-6,-3,-3
1481274128513314,0,1,0,9,50,6,3,0
1481274128525315,-1,0,2,6,4,-7,-10,-3
1481274128525315,-1,-2,-3,-8,-31,-3,0,-1
1481274128534317,0,0,-1,2,53,7,2,1
1481274128534317,0,-4,-1,-1,-26,-4,-2,-2
1481274128556319,1,0,-2,-5,0,2,4,2
1481274128556319,-2,-2,-1,-2,-18,-2,-1,-3
1481274128558321,1,-1,-1,-1,-2,-2,-1,-1
1481274128558321,-1,1,0,1,1,-4,-1,-2
1481274128571321,-2,-1,-3,2,5,-2,-5,-1
1481274128571321,0,-1,1,-5,-23,-5,-1,0
1481274128572822,-1,-2,-2,-2,5,4,2,1
1481274128572822,1,0,-1,-7,-16,-5,-3,1
1481274128585323,0,-1,0,0,-11,-3,0,-4
1481274128585323,-1,-1,0,1,8,-1,-2,0
1481274128593824,0,-1,-1,5,40,1,-3,-1
1481274128593824,-1,-2,-1,-13,-59,-2,1,-1
1481274128616327,0,-2,-2,7,60,-3,-4,-1
1481274128616327,0,-2,-4,-2,4,0,2,-2
1481274128617828,-4,-1,0,-1,-13,-3,-5,-2
1481274128617828,0,-2,-1,0,-1,-6,-2,-1
1481274128631329,-2,0,0,-7,-34,-1,3,-1
1481274128631329,-2,-1,-1,-1,20,4,1,-1
1481274128633329,0,-1,-1,1,-15,-2,-1,0
1481274128633329,-3,-1,-1,-2,-3,6,-2,-2
1481274128645330,-1,1,0,-1,-12,-4,-4,-1
1481274128645330,0,1,3,5,2,-4,-7,-2
1481274128654332,1,-1,-3,-9,-19,-3,-1,-1
1481274128654332,0,0,4,25,43,2,-1,-1
1481274128668334,-1,-3,0,-23,24,-2,0,-1
1481274128668334,-2,-5,-2,3,-19,4,2,-1
1481274128675335,0,0,3,6,8,3,0,-2
1481274128675335,-1,1,-4,1,-1,-3,-4,-1
1481274128691336,-1,1,4,8,-26,0,-1,-2
1481274128691336,-1,1,-10,-17,13,7,-2,-1
1481274128692836,-1,-2,0,4,16,-3,2,-1
1481274128692836,-3,-3,-5,-14,-41,-4,-4,-1
1481274128705338,-1,-1,0,18,70,5,-4,0
1481274128705338,0,-1,3,6,-15,0,0,2
1481274128721840,-2,-3,-14,-42,-31,-2,-4,-2
1481274128721840,0,0,1,2,15,-3,1,0
1481274128728341,1,2,-2,0,-11,-2,-4,-1
1481274128728341,0,-2,0,12,-4,-4,0,0
1481274128735342,0,1,9,24,11,0,2,0
1481274128735342,-1,-2,-17,-34,-9,2,3,0
1481274128751345,-1,-1,0,-1,2,1,5,-1
1481274128751345,0,1,-2,-13,-22,-1,2,-1
1481274128752845,1,-2,-1,9,18,1,8,1
1481274128752845,-2,-3,1,-1,-8,-3,0,-1
1481274128765346,-2,0,4,10,-20,0,0,-2
1481274128765346,0,0,-7,-9,15,1,1,-1
1481274128781849,-3,-1,-2,-6,-21,-3,-4,-2
1481274128781849,1,-1,0,9,20,1,6,1
1481274128788349,0,-1,-1,-3,-29,-4,-3,-1
1481274128788349,-1,-1,-1,-2,12,-5,-1,0
1481274128795350,-2,-3,1,1,0,3,0,2
1481274128795350,0,0,0,-5,-41,3,-3,-1
1481274128811351,2,1,-1,10,55,-3,-5,1
1481274128811351,-1,0,1,-1,-3,-4,0,0
1481274128812852,0,0,3,3,-2,3,0,-1
1481274128812852,-1,-3,-1,-9,-12,-4,-3,-1
1481274128833855,0,-1,-1,-5,-13,1,0,0
1481274128833855,-3,0,-1,-3,-13,-3,0,-3
1481274128835855,0,-1,-1,5,20,-3,-5,-2
1481274128835855,-2,0,6,10,22,1,0,-2
1481274128848403,-2,-2,-6,-3,-35,-2,3,0
1481274128848403,-1,-1,-2,-9,-1,6,2,0
1481274128854857,-1,-1,-8,-7,-11,-5,1,-1
1481274128854857,0,2,1,7,24,2,0,1
1481274128871359,-2,-3,-6,-11,-17,-3,-2,-1
1481274128871359,0,-1,0,9,1,-2,0,0
1481274128872860,-1,1,3,2,-1,-2,-3,1
1481274128872860,-2,-2,0,4,2,1,-3,0
1481274128885861,-1,-3,-7,-6,1,3,-2,-1
1481274128885861,0,-2,3,4,-5,-1,-4,-1
1481274128893862,-1,0,0,-19,-26,-2,0,-3
1481274128893862,-1,0,1,9,47,0,2,-1
1481274128908364,0,2,3,12,-44,-9,-8,-2
1481274128908364,-1,-1,-6,-23,-23,5,-1,-3
1481274128914865,2,-1,4,17,40,-1,-1,-1
1481274128914865,0,0,-2,-7,-6,0,-1,0
1481274128930867,0,-1,5,1,-14,-4,-8,-2
1481274128930867,-1,-2,-10,0,2,-5,-1,2
1481274128945869,-4,-1,-3,-6,-13,-3,0,-1
1481274128945869,1,-1,-2,-4,-13,-1,-1,-1
1481274128946369,-1,1,3,3,14,1,1,-1
1481274128946369,0,1,2,5,4,-8,-6,-2
1481274128953870,2,0,1,7,19,3,3,1
1481274128953870,-1,-3,-5,-8,-12,-8,-4,-1
1481274128968372,-1,-2,-4,-5,4,-1,0,0
1481274128968372,-1,-1,4,1,7,-1,0,2
1481274128975373,-1,-2,-2,4,2,-2,-1,-1
1481274128975373,-2,-1,-1,-4,-62,-4,5,2
1481274128990875,-1,-1,-3,-5,32,1,4,-1
1481274128990875,0,1,0,5,17,-4,-2,-1
1481274128997375,-1,0,0,0,-15,3,5,2
1481274128997375,-1,-1,2,11,-9,-2,-3,-1
1481274129004876,0,-1,-4,-22,-1,5,-2,-1
1481274129004876,-1,1,-2,4,-6,-6,-4,-1
1481274129013878,-3,1,0,6,-10,2,-5,0
1481274129013878,0,-1,-1,-13,-3,-1,-3,-1
1481274129028379,-2,0,-1,4,-11,0,2,0
1481274129028379,0,-3,-1,-11,23,-2,-1,-2
1481274129035381,0,-2,-4,-1,2,-1,-3,-3
1481274129035381,-2,1,3,10,-4,0,0,-2
1481274129051383,-3,-1,4,5,-13,0,8,-1
1481274129051383,-3,-1,1,2,-16,4,0,0
1481274129057383,-1,0,-5,-14,-6,-6,-3,1
1481274129057383,-2,-3,-1,-4,8,3,5,0
1481274129065385,0,0,-2,-4,-6,-4,-3,0
1481274129065385,-1,-1,-3,6,1,1,1,-3
1481274129074386,1,-2,0,-2,5,5,0,-2
1481274129074386,2,1,0,10,7,-4,-4,-1
1481274129088387,0,0,-7,-18,12,-2,-1,0
1481274129088387,0,2,-1,2,7,5,0,-1
1481274129095388,0,-1,3,-2,-4,-5,1,-2
1481274129095388,-1,-2,-2,-5,-4,-2,-1,-2
1481274129110890,0,-3,0,1,-35,-3,-4,-2
1481274129110890,2,-1,4,11,50,8,3,-1
1481274129117891,0,-2,3,6,-14,4,3,0
1481274129117891,-1,0,-6,-3,-12,-9,-3,-1
1481274129133893,-3,0,-2,-5,9,1,-2,0
1481274129133893,0,-1,-7,-2,-10,-5,-2,-1
1481274129135394,-2,-2,2,-2,-5,-2,-4,0
1481274129135394,-1,0,0,-5,-26,2,4,1
1481274129148395,2,0,5,18,24,3,0,0
1481274129148395,-1,-3,-4,-29,-16,-4,3,0
1481274129154895,-1,-1,-6,9,43,-3,1,-2
1481274129154895,-1,1,3,1,5,2,-4,0
1481274129170897,0,0,-3,-1,-22,2,3,0
1481274129170897,-1,-3,-3,5,-10,0,2,-1
1481274129177398,1,0,-3,-4,-11,-6,-2,1
1481274129177398,-2,-3,-3,-7,22,-3,-6,-1
1481274129193900,-1,0,2,12,14,0,1,0
1481274129193900,0,1,3,-1,-29,-4,-4,-1
1481274129195400,-1,-1,-1,-2,12,-3,-1,-2
1481274129195400,-1,0,-1,6,58,5,0,-1
1481274129208403,-1,-2,1,3,-9,0,0,-2
1481274129208403,0,-1,3,8,-40,-5,-4,1
1481274129215403,1,0,-1,-8,25,3,-1,-1
1481274129215403,-1,0,-1,11,-3,-1,2,0
1481274129230906,0,-2,2,1,-4,-2,0,-3
1481274129230906,-1,-1,-1,-6,16,-1,-6,-3
1481274129237406,-1,1,6,18,-12,-1,3,2
1481274129237406,-1,-2,0,-3,21,2,1,-2
1481274129253908,-1,-1,-7,-32,-38,-10,1,1
1481274129253908,-1,1,3,14,15,0,-1,0
1481274129255408,0,-3,-4,-2,-1,-1,-4,-1
1481274129255408,-1,-3,-2,-3,-8,-2,-4,-3
1481274129268410,1,0,0,5,-22,-2,-1,-2
1481274129268410,-1,-1,0,-7,27,1,-1,0
1481274129274911,-2,-3,-6,1,-28,-6,-2,-1
1481274129274911,0,1,1,-4,-4,-2,-2,0
1481274129290913,-3,-4,-3,11,26,3,-5,0
1481274129290913,0,2,1,2,-4,0,3,-1
1481274129296921,1,2,1,-6,-10,-3,-7,-1
1481274129296921,-1,-1,0,9,-34,-1,0,-1
1481274129313922,-2,-1,1,-11,17,-2,-4,0
1481274129313922,0,-3,-3,0,18,3,4,0
1481274129315922,0,-1,5,6,-14,-5,-6,-3
1481274129315922,1,-1,-4,-11,-13,1,2,1
1481274129335930,2,0,2,11,-6,8,0,1
1481274129335930,0,-1,0,-6,27,-1,-2,-2
1481274129337924,0,0,-7,-18,3,0,3,0
1481274129337924,-2,-1,2,11,14,-3,-1,-1
1481274129350925,-2,-2,-5,-6,5,2,1,0
1481274129350925,-2,-2,-3,2,-38,-1,12,4
1481274129356926,-4,-1,0,2,-8,4,2,-5
1481274129356926,1,0,1,-11,-10,-4,1,2
1481274129373927,0,-2,-6,0,15,0,1,2
1481274129373927,0,2,-2,-3,-10,-4,-6,-2
1481274129374926,0,-2,0,-1,-6,-1,-3,-2
1481274129374926,-1,-2,-8,-20,-13,5,6,0
1481274129387933,-2,1,0,-3,-31,-10,-5,-4
1481274129387933,2,-1,0,3,43,4,-2,1
1481274129395941,-1,-4,-7,-3,-14,1,-1,2
1481274129395941,0,-2,6,19,9,-3,-7,-3
1481274129410941,1,-1,1,-14,-7,2,-2,-3
1481274129410941,-4,-1,-6,-3,-22,-1,10,0
1481274129416942,1,5,5,5,4,2,7,4
1481274129416942,0,1,-6,-4,4,2,1,0
1481274129433942,-1,-2,-6,-11,3,-4,2,-1
1481274129433942,-1,1,3,9,14,-5,-6,-1
1481274129435944,-2,-2,-1,1,5,0,-1,0
1481274129435944,-1,-1,1,-2,-12,-2,-1,0
1481274129446944,-1,0,0,4,12,-1,-4,-2
1481274129446944,-2,-4,-3,-8,-42,0,-3,1
1481274129455955,1,0,-2,-1,61,0,-2,-1
1481274129455955,0,-1,0,3,15,1,-1,-1
1481274129470945,-2,-4,-1,7,34,2,-2,-3
1481274129470945,1,1,2,-1,-14,-4,-5,0
1481274129477946,0,0,-4,-9,-28,-4,-3,-4
1481274129477946,-1,-3,-3,-1,0,1,-4,-1
1481274129494456,1,2,5,5,29,-5,3,1
1481274129494456,-2,-2,1,5,-20,2,2,-1
1481274129495961,-1,-1,0,-4,-3,1,-1,0
1481274129495961,0,1,-1,14,3,-4,-3,-4
1481274129506961,1,0,7,-4,-21,-4,8,4
1481274129506961,-1,-3,-3,-15,9,1,-4,-3
1481274129523963,-2,-2,2,8,-1,0,3,1
1481274129523963,-2,-3,-3,4,12,0,-1,0
1481274129538964,0,1,2,11,-10,3,-1,2
1481274129538964,1,-1,2,5,-21,-2,1,3
1481274129539964,-1,-4,-7,2,-6,0,-5,-4
1481274129539964,-1,-1,1,-1,40,1,1,-2
1481274129553964,-2,-1,-3,-1,-25,-2,3,-1
1481274129553964,-1,1,-2,-2,-5,-2,-7,-3
1481274129554964,1,1,-2,-7,4,5,6,3
1481274129554964,-1,-2,-1,-5,-6,-1,-3,-2
1481274129566965,0,0,-5,-1,9,-1,-7,-1
1481274129566965,-1,-1,1,-3,3,-2,4,-2
1481274129576965,0,0,3,2,-13,-3,-2,-3
1481274129576965,1,1,0,-3,1,-1,-1,1
1481274129590975,-1,-5,-2,0,4,-1,-7,-1
1481274129590975,0,2,1,4,8,-10,-5,0
1481274129597984,1,-2,-1,-15,-1,1,-1,1
1481274129597984,-2,-3,-3,-3,-6,-1,0,0
1481274129613983,-2,-1,-2,14,-2,-6,-4,-3
1481274129613983,1,-2,-2,-23,14,-4,-8,-2
1481274129614984,-2,-1,-2,6,-34,0,7,2
1481274129614984,2,1,2,-7,12,-3,2,0
1481274129626983,0,-2,1,10,23,0,-3,-1
1481274129626983,-2,-1,-3,-3,-1,2,-1,-2
1481274129635986,0,-2,5,6,1,-2,-9,-2
1481274129635986,-2,0,-1,0,-30,-3,-2,0
1481274129650984,-1,0,-7,-21,-31,4,13,2
1481274129650984,0,-1,1,6,6,3,3,-1
1481274129656985,-1,-2,-2,-4,-12,-5,-5,-1
1481274129656985,0,0,2,6,32,11,3,-2
1481274129673986,-2,-2,0,-5,-37,-11,-8,1
1481274129673986,-1,-1,-2,2,30,5,2,-1
1481274129674987,-1,-2,-2,-4,-5,-1,6,0
1481274129674987,-1,-1,-2,-3,0,-3,-3,-1
1481274129687493,1,2,4,14,12,3,-1,0
1481274129687493,-2,-3,-14,-37,-2,0,0,0
1481274129704000,-1,-1,0,5,-14,-2,1,-1
1481274129704000,-1,-1,-4,-14,0,-6,-3,0
1481274129711004,0,-1,-2,6,24,1,0,-2
1481274129711004,-1,-3,-1,12,-13,-2,1,0
1481274129718005,0,1,0,-5,-3,0,-3,-2
1481274129718005,0,-3,-9,-6,-24,-6,-6,-1
1481274129734003,-2,0,-1,-11,20,-2,-5,-2
1481274129734003,-1,1,3,14,-2,-1,2,3
1481274129740004,-2,0,-2,-8,-3,-2,-2,-2
1481274129740004,-1,-1,-2,-1,-21,0,7,2
1481274129747005,1,-1,1,20,15,0,1,0
1481274129747005,0,-1,-4,-33,-35,-2,-3,-2
1481274129756006,0,-1,0,4,33,4,2,-1
1481274129756006,-1,-1,1,-3,-34,-1,5,1
1481274129771007,-2,-1,-2,-1,1,7,0,-1
1481274129771007,-2,-1,-7,3,2,2,3,-1
1481274129777006,2,1,-3,-12,6,-1,2,2
1481274129777006,-1,-2,0,2,36,-1,-4,-3
1481274129794017,-1,-1,1,-4,-5,-1,-4,-3
1481274129794017,0,1,6,12,-8,-1,2,1
1481274129795016,0,3,3,1,-3,-2,-5,-1
1481274129795016,-1,1,1,1,-3,2,1,-1
1481274129807025,1,-1,-1,-5,-9,-3,0,1
1481274129807025,-1,-5,-3,-3,-13,8,1,-1
1481274129816041,-1,-1,-1,7,12,-2,1,-1
1481274129816041,0,-1,-4,-3,-15,1,2,-2
1481274129831027,-2,0,0,-3,1,-1,1,-2
1481274129831027,-3,1,-2,3,-6,-7,-3,-1
1481274129837025,-3,0,1,5,25,2,-1,-2
1481274129837025,-2,-1,2,-3,21,2,-3,0
1481274129854106,-2,-3,-3,-5,-13,-1,5,0
1481274129854106,0,-1,2,5,7,-2,-2,-2
1481274129855026,-1,1,0,-1,7,-3,-11,0
1481274129855026,1,2,1,1,-7,1,-2,-1
1481274129867029,3,1,0,-4,4,-6,-2,0
1481274129867029,1,-1,-1,6,13,-3,-2,0
1481274129876060,0,-3,-4,-1,-20,-2,-2,-1
1481274129876060,0,-2,0,-3,-1,-2,-7,-3
1481274129899046,-2,-2,-3,-5,8,3,4,-1
1481274129899046,-2,-1,1,4,-19,-5,0,-2
1481274129906063,-1,-3,0,1,-42,-1,2,0
1481274129906063,0,2,-1,2,78,0,1,3
1481274129913128,-2,-2,-4,-6,-15,-2,-4,0
1481274129913128,-3,-3,-1,-2,-5,-3,-2,-1
1481274129920127,-1,-5,-4,-1,-4,-7,6,1
1481274129920127,-2,-1,2,19,-14,-4,-11,-2
1481274129927047,-2,-2,-6,-29,4,-1,1,0
1481274129927047,-1,0,0,6,25,4,1,-1
1481274129936052,-2,0,-1,-3,-12,-3,-1,-1
1481274129936052,-1,-2,-1,-1,-42,2,2,-2
1481274129950050,-1,0,4,12,35,4,-1,-4
1481274129950050,1,1,1,3,14,3,3,2
1481274129958048,-2,-2,1,-3,11,3,-1,-2
1481274129958048,-1,-1,1,0,-23,-6,3,0
1481274129973120,-1,-3,-2,-1,-4,3,2,-1
1481274129973120,-1,-4,-1,0,-18,-1,-1,-4
1481274129980132,-1,-2,-3,14,45,0,2,0
1481274129980132,-4,-4,-4,-21,-20,5,6,-1
1481274129987634,1,1,2,7,-21,-6,-9,-3
1481274129987634,0,1,1,13,13,0,-6,-3
1481274129996144,-2,-3,-5,-20,-5,4,5,1
1481274129996144,-1,-2,-7,-17,-19,-5,-4,-1
1481274130010138,-1,0,-1,3,17,-3,-2,-2
1481274130010138,1,0,2,4,-11,-1,-5,1
1481274130017143,-2,0,0,-1,-5,1,-7,-4
1481274130017143,0,1,2,7,18,-2,0,-2
1481274130033213,0,-1,-5,-6,-43,-4,-1,-1
1481274130033213,-1,-1,1,1,32,0,3,0
1481274130048194,-1,-2,-7,-5,-15,1,6,1
1481274130048194,0,-2,-1,2,-6,-4,-4,-1
1481274130049140,0,0,0,6,11,-2,-3,-1
1481274130049140,0,-2,-1,-9,23,4,5,-1
1481274130056141,0,-1,-1,5,6,-3,-2,1
1481274130056141,0,0,3,3,-9,1,-2,-1
1481274130070143,-1,-1,-1,-6,-6,-1,-2,-1
1481274130070143,-4,-1,-2,1,8,-4,-2,-2
1481274130077214,0,2,3,-6,2,-4,-4,-3
1481274130077214,-2,-2,1,3,7,1,-1,0
1481274130093656,0,-1,-1,1,-3,1,4,1
1481274130093656,-1,-2,-1,0,-11,0,0,0
1481274130099995,1,-4,-2,-3,-11,-1,2,1
1481274130099995,-2,-1,-1,-2,-8,-4,-3,-3
1481274130116065,-2,0,-2,1,18,4,0,1
1481274130116065,-1,0,1,-7,-49,0,1,-4
1481274130117995,-1,1,-1,3,20,0,2,0
1481274130117995,0,-2,-2,-4,-7,-3,0,-1
1481274130130995,-2,0,-1,2,-9,-2,0,-1
1481274130130995,-1,-2,1,3,9,-1,-3,0
1481274130145009,-2,-2,-3,-3,-19,-1,-1,-1
1481274130145009,-1,0,0,2,5,-3,0,0
1481274130153086,-2,-1,0,-1,14,7,7,1
1481274130153086,-1,-3,-5,-2,-35,-4,-1,1
1481274130159997,-2,-1,0,-1,-9,2,-5,-2
1481274130159997,0,1,1,2,7,1,2,1
1481274130175015,1,-2,1,-2,-20,-3,-2,-2
1481274130175015,1,2,2,4,21,-3,-3,-1
1481274130184078,1,0,0,-4,1,-1,-4,-2
1481274130184078,1,-1,-2,-4,-34,-3,4,2
1481274130191076,-1,-3,-3,1,30,0,-4,-1
1481274130191076,-2,0,0,1,2,0,-2,-1
1481274130206081,-1,1,0,3,-3,-3,-2,-3
1481274130206081,-1,-2,-2,-1,-10,-3,0,-2
1481274130213086,-1,-1,0,0,31,-2,-1,0
1481274130213086,1,1,-1,-3,-1,-4,-2,2
1481274130220086,-1,-1,0,0,-29,0,6,-1
1481274130220086,0,0,0,3,49,1,3,-1
1481274130236083,-3,-1,-2,-7,-40,1,-1,-2
1481274130236083,-2,-2,-1,3,27,-3,-2,-2
1481274130238084,-3,-3,2,2,51,-3,-6,0
1481274130238084,0,0,-3,0,-27,-2,-3,-1
1481274130251090,-1,-2,-2,-1,-12,-4,-2,0
1481274130251090,-3,-1,-1,-7,-5,0,1,-2
1481274130257165,-1,-2,-2,2,-3,1,0,-1
1481274130257165,-1,-3,0,-1,7,-4,0,-3
1481274130273089,1,0,-1,-3,7,-3,-2,0
1481274130273089,1,-2,-1,0,-10,-3,-1,-2
1481274130280150,-1,-1,-1,-1,4,1,1,0
1481274130280150,-1,0,-1,1,0,0,-5,-3
1481274130296160,-2,1,2,4,2,-3,3,0
1481274130296160,1,-1,-2,-9,-36,3,0,0
1481274130298155,-1,-1,-3,-2,-4,-2,3,0
1481274130298155,0,-2,-5,-10,-2,-1,3,3
1481274130311158,-3,-2,0,4,-22,-2,-2,-2
1481274130311158,2,3,1,3,38,3,5,1
1481274130317162,-1,0,-1,1,-18,1,-3,-1
1481274130317162,-2,-1,0,-7,-37,-2,-5,-1
1481274130333183,0,-1,-1,-2,18,3,-1,0
1481274130333183,-2,-3,-5,-4,-14,0,2,1
1481274130340210,-1,-1,1,2,-3,-5,-3,-1
1481274130340210,-2,-1,0,2,16,5,4,-1
1481274130356186,0,1,-2,0,-7,-5,-4,-3
1481274130356186,-1,-2,-3,-4,-7,-2,-5,-3
1481274130358160,7,6,2,-1,4,0,4,2
1481274130358160,-9,-15,-4,3,31,4,-2,-1
1481274130370160,-1,-2,1,2,0,0,-2,0
1481274130370160,-4,-2,-1,0,-13,-3,-5,-1
1481274130379160,0,-2,-2,1,18,3,6,1
1481274130379160,2,5,3,2,1,2,2,1
1481274130393170,1,4,-1,-1,-18,-4,0,0
1481274130393170,-1,-2,-1,1,3,-2,-1,-3
1481274130399843,4,6,-1,-7,-42,0,-5,0
1481274130399843,-10,-9,-2,10,69,0,-3,-3
1481274130414848,0,-4,0,-8,-20,-2,-2,-1
1481274130414848,-1,1,0,-3,-13,-1,0,0
1481274130423846,1,-3,0,4,24,1,0,1
1481274130423846,3,5,1,-3,-21,-5,-5,-1
1481274130429847,-1,-1,-1,4,2,0,2,1
1481274130429847,0,-1,-2,-3,9,0,0,-2
1481274130438847,-3,-2,-3,-3,-14,-4,4,1
1481274130438847,1,1,-1,0,-21,2,3,1
1481274130452849,1,1,-1,2,19,1,1,0
1481274130452849,1,0,2,1,1,-2,-1,-1
1481274130459849,-4,-1,0,-1,8,-1,-2,-3
1481274130459849,0,1,-2,-7,-21,-5,-4,-1
1481274130476850,1,0,-1,1,0,4,4,-1
1481274130476850,0,-2,-2,-5,0,0,-4,1
1481274130477850,-1,2,2,1,12,-5,-1,-2
1481274130477850,4,1,1,2,-8,-1,-2,0
1481274130490358,0,2,-2,-6,7,-6,-6,-2
1481274130490358,-7,1,1,6,20,0,-2,-2
1481274130498917,-3,-6,-2,-3,-21,3,-1,0
1481274130498917,1,11,1,-4,-4,1,3,4
1481274130520917,-1,-2,1,0,-22,3,2,0
1481274130520917,2,8,0,4,53,2,-3,-1
1481274130522916,-3,-14,-3,-2,-23,-3,-7,-3
1481274130522916,1,4,1,1,-1,0,-5,-2
1481274130535918,-2,-2,-2,-2,-2,-2,-2,-1
1481274130535918,-4,-7,-4,-2,-16,-4,-3,-3
1481274130537918,0,6,2,1,17,2,0,0
1481274130537918,0,-4,-3,-4,-28,5,9,0
1481274130549921,-4,-4,-1,-2,1,-2,-1,-1
1481274130549921,0,-1,-1,-3,-17,1,2,0
1481274130558920,-2,-1,1,3,35,1,2,0
1481274130558920,-1,2,-1,-2,-15,-1,-2,-3
1481274130573005,-1,-1,-1,-4,-9,-5,-6,-2
1481274130573005,1,-2,-1,-5,-26,-2,5,1
1481274130579992,-1,1,0,4,3,-2,-7,-2
1481274130579992,-2,-2,0,0,39,-3,-6,-2
1481274130596146,1,-2,-1,2,3,0,2,1
1481274130596146,7,5,-4,-6,-6,-1,-4,-1
1481274130598073,-9,-2,-4,-2,-9,0,2,-1
1481274130598073,13,5,-1,-3,-10,-1,-1,1
1481274130610155,-15,-21,-7,-7,1,-1,-2,-3
1481274130610155,1,1,1,3,2,-1,2,1
1481274130625090,0,1,-2,-6,-8,-1,0,0
1481274130625090,-2,0,2,4,6,0,-1,-2
1481274130633073,5,4,0,-1,-9,-6,-4,-1
1481274130633073,-3,-1,0,-2,-15,0,-3,-1
1481274130640145,0,-2,-1,-1,16,-2,-1,0
1481274130640145,-5,-5,-3,-3,-19,-7,-3,0
1481274130656076,1,4,2,3,27,4,-1,-2
1481274130656076,-4,-3,3,5,6,-1,-1,-2
1481274130658076,1,2,2,0,-30,0,2,0
1481274130658076,-2,-2,-1,0,28,3,3,0
1481274130670077,-1,1,0,-2,-12,-5,-1,1
1481274130670077,-2,-2,-3,-2,6,-2,-5,-3
1481274130679078,3,0,1,1,-18,2,3,0
1481274130679078,-4,0,-1,2,36,0,-2,-1
1481274130693093,6,14,1,-5,-18,-1,-1,0
1481274130693093,-5,-14,-4,-1,6,0,0,-1
1481274130699572,3,-2,1,-2,-8,-5,-4,-2
1481274130699572,-6,-12,-4,-2,-15,-1,-1,-2
1481274130716504,0,2,0,4,13,3,1,0
1481274130716504,0,6,-1,0,0,-1,0,1
1481274130717501,1,2,-5,-6,-7,-1,3,0
1481274130717501,-1,-2,-2,-3,-1,-5,-1,-1
1481274130729505,-2,-3,-1,3,0,2,1,1
1481274130729505,6,7,-1,-5,-7,-1,-2,-1
1481274130738512,-6,-9,-1,2,10,-7,-6,-3
1481274130738512,-1,0,2,-4,-38,-3,-3,1
1481274130753506,-2,-5,-1,-1,-15,1,2,0
1481274130753506,0,3,-1,-2,6,-2,-3,0
1481274130759505,1,4,1,3,8,0,-2,-2
1481274130759505,-1,-3,-2,-1,4,-4,-7,-3
1481274130776505,2,1,-1,0,-29,-2,-1,-2
1481274130776505,-8,-11,0,4,22,0,2,-1
1481274130777505,1,1,0,0,3,0,-2,-1
1481274130777505,-1,1,-1,-2,-14,-4,-2,-2
1481274130790018,-1,-8,0,3,12,0,0,-1
1481274130790018,0,-1,2,-3,-40,0,3,-1
1481274130799219,2,1,1,3,64,2,-2,0
1481274130799219,-10,-3,-4,-1,-3,1,1,-1
1481274130813291,2,1,-1,-2,-4,0,3,-1
1481274130813291,-1,-6,-1,-3,-4,-2,0,-3
1481274130820220,-1,-3,-1,-5,-47,-4,-2,-2
1481274130820220,2,5,0,0,9,3,2,1
1481274130836224,-1,3,1,1,20,2,-3,1
1481274130836224,-2,-5,-4,-3,-21,1,2,3
1481274130842221,0,3,0,2,2,-2,0,1
1481274130842221,3,0,0,-6,-18,-7,-7,0
1481274130850224,-4,-3,-1,3,20,-2,-1,0
1481274130850224,2,3,0,1,8,0,1,2
1481274130866227,-3,-1,-1,-4,2,-1,-3,-1
1481274130866227,-2,-6,-3,1,5,-3,-2,-3
1481274130873302,0,-2,-1,-2,-6,-1,-1,-2
1481274130873302,0,-1,0,0,7,0,-2,-2
1481274130880295,2,0,-1,2,7,-2,-3,-1
1481274130880295,-5,-2,-1,-1,-19,1,7,1
1481274130895308,0,-2,-1,-1,-2,0,-1,-2
1481274130895308,11,20,3,-2,10,-3,-2,0
1481274130902329,-16,-33,-7,-6,-34,-3,-4,-4
1481274130902329,2,-2,2,2,-3,1,-1,0
1481274130910329,-2,-2,-1,0,4,-1,-3,-1
1481274130910329,-1,-1,0,1,-3,0,-2,0
1481274130918330,3,7,-1,-2,21,2,0,2
1481274130918330,1,0,-1,-2,3,-1,1,0
1481274130933333,0,-1,1,0,-11,-5,-6,-2
1481274130933333,-4,-2,0,-2,-36,-3,2,-1
1481274130940387,-1,3,2,0,12,3,1,0
1481274130940387,-2,-5,-1,1,17,3,2,-1
1481274130955393,0,3,-2,-3,-1,-2,2,1
1481274130955393,-4,-6,-2,0,7,2,-3,-1
1481274130962380,2,1,-2,-2,-13,-3,0,0
1481274130962380,2,1,-1,-5,7,2,-2,-4
1481274130978444,2,-2,0,0,23,2,1,0
1481274130978444,-4,0,0,2,5,1,-2,-2
1481274130980332,0,0,0,0,0,1,2,-1
1481274130980332,0,1,-1,-2,-8,-4,-3,-1
1481274130993342,-2,0,-2,-3,-9,-1,0,-2
1481274130993342,-4,-7,-2,-2,16,1,-1,0
1481274130999848,1,4,0,-4,-10,-1,0,4
1481274130999848,0,-2,1,3,0,-1,1,1
1481274131015918,1,6,1,-1,2,2,-1,1
1481274131015918,-10,-15,-6,-7,-11,4,5,-1
1481274131022850,-3,-1,-2,-2,-7,0,1,-2
1481274131022850,-1,-5,-2,0,-1,-3,-3,0
1481274131038927,-1,0,-1,-2,-18,0,6,1
1481274131038927,2,2,1,4,34,-3,-3,-2
1481274131039849,-1,3,-1,-2,9,0,-1,-3
1481274131039849,3,3,2,4,13,-2,0,-1
1481274131052850,-4,8,-1,-9,-45,-4,-3,-4
1481274131052850,-3,-4,0,5,43,1,1,0
1481274131059924,-2,-4,-3,-2,-2,4,4,0
1481274131059924,-2,1,0,1,9,1,-1,0
1481274131075851,-2,-5,0,0,6,-4,-1,-1
1481274131075851,-1,-1,-1,-5,-44,-8,2,-1
1481274131082859,-1,0,0,3,35,-1,-2,-1
1481274131082859,1,-1,-3,-7,-22,4,3,1
1481274131098937,-1,-7,-1,3,2,2,-2,1
1481274131098937,1,1,-1,-2,-4,-4,-5,0
1481274131099865,0,-1,-2,2,1,0,-4,-1
1481274131099865,-1,1,-1,0,-10,0,-1,-2
1481274131112938,-2,-4,0,-2,17,-2,-1,-1
1481274131112938,2,-1,-2,3,10,4,-4,-1
1481274131127868,1,3,0,-5,-13,2,3,1
1481274131127868,-2,0,-2,2,3,-5,1,-1
1481274131135879,-2,-5,-2,-2,-4,1,-1,-3
1481274131135879,2,2,0,0,-1,0,-4,-2
1481274131142869,0,-1,0,0,2,-3,-1,0
1481274131142869,0,0,0,-4,-9,2,2,0
1481274131158869,-1,-2,0,0,10,1,1,0
1481274131158869,0,-1,-1,-2,-1,-2,0,0
1481274131159869,-2,0,-1,-1,-20,0,-2,-2
1481274131159869,-5,-2,0,1,18,-3,-1,1
1481274131172941,-1,-4,-3,-3,-13,-5,-5,-2
1481274131172941,2,1,-4,-5,-12,3,10,1
1481274131180378,-7,2,-1,-4,-12,-1,0,1
1481274131180378,-2,-8,-1,1,-2,-3,-3,-2
1481274131195890,-1,4,1,0,-2,2,2,-1
1481274131195890,-3,-10,0,1,12,-4,-6,-1
1481274131202884,2,4,1,0,-11,-2,-1,1
1481274131202884,1,5,-1,0,-4,4,0,1
1481274131218885,-5,-11,-3,-2,-5,-1,0,1
1481274131218885,2,3,0,1,-12,1,1,-1
1481274131219885,0,-1,-1,-2,8,-4,-1,-3
1481274131219885,-1,-3,-2,-1,10,0,-1,-1
1481274131232952,0,-1,-3,-2,-1,5,3,-1
1481274131232952,-1,2,2,-1,-10,-3,-2,-2
1481274131239957,-2,-5,-1,3,4,3,1,0
1481274131239957,0,-1,-2,-4,-20,1,5,1
1481274131256011,4,2,0,1,7,-1,-2,0
1481274131256011,0,7,-1,1,4,-3,0,2
1481274131261980,0,-4,-1,1,0,-2,-2,0
1481274131261980,1,1,-1,3,4,-2,-5,-3
1481274131278961,-1,3,1,-1,-1,-2,2,1
1481274131278961,-4,-6,-1,1,12,0,-2,0
1481274131280397,-1,-1,-1,-7,-32,-5,-1,-3
1481274131280397,-2,-2,0,0,5,-1,-1,-2
1481274131293399,-1,-4,-2,-3,-15,-3,-4,0
1481274131293399,-1,0,0,1,2,-1,-1,0
1481274131299551,1,-1,-1,3,-10,0,2,-1
1481274131299551,-1,-3,0,0,46,2,6,0
1481274131315550,-2,1,-1,-5,-12,-3,-1,-2
1481274131315550,2,0,-2,-3,-22,0,-5,-2
1481274131322546,-2,2,-2,0,-1,-3,-2,-1
1481274131322546,0,-1,0,0,6,-1,-2,-2
1481274131338519,-2,-1,0,1,1,-1,-1,-1
1481274131338519,-2,-3,-6,-12,-19,0,3,0
1481274131340477,2,-2,0,0,25,-2,-3,-1
1481274131340477,-1,-1,-3,-5,-15,0,-2,-1
1481274131353479,-2,3,-1,3,15,2,-1,0
1481274131353479,-2,-5,1,1,-5,-2,-2,-1
1481274131359549,0,-1,0,2,4,1,-2,-1
1481274131359549,0,2,0,-2,-15,0,0,1
1481274131375549,3,1,-2,1,12,0,-1,-1
1481274131375549,-2,-1,0,0,5,-2,1,-2
1481274131382486,1,-1,0,-1,-2,-6,-6,-1
1481274131382486,-1,-3,0,-1,-7,-3,1,2
1481274131398579,-1,-4,-2,-1,-9,-1,0,-1
1481274131398579,0,5,0,-1,1,2,3,0
1481274131400511,-6,-13,-3,0,-3,-2,-1,-1
1481274131400511,2,0,1,1,-11,3,0,-1
1481274131413520,-2,-1,1,0,-7,-2,-3,-2
1481274131413520,0,3,1,3,11,-3,-5,-1
1481274131427581,1,-1,0,-3,4,0,0,-1
1481274131427581,-2,7,-3,-2,-8,-5,-5,-3
1481274131443582,0,-5,-2,1,7,-1,0,0
1481274131443582,-1,-2,0,-1,-11,-1,-3,-2
1481274131445513,1,3,0,-1,-1,-1,-1,0
1481274131445513,-1,-3,-2,0,-8,-1,-1,-2
1481274131458583,-1,0,-1,1,20,1,0,1
1481274131458583,-1,-1,0,-1,7,-1,2,-1
1481274131460515,0,1,-1,-4,-5,-1,-2,0
1481274131460515,1,0,0,5,21,-2,-2,1
1481274131473538,-1,-2,0,1,-1,0,-1,-1
1481274131473538,-1,-1,-2,-7,-33,0,8,2
1481274131479585,-4,-3,-1,-1,44,1,-2,-2
1481274131479585,-2,-4,0,-5,-25,1,4,0
1481274131495526,-1,-1,0,-1,14,-2,-3,0
1481274131495526,1,-3,-1,2,14,4,-3,0
1481274131502665,0,3,-1,-1,-30,1,-1,0
1481274131502665,-4,-2,-3,0,-4,-1,1,1
1481274131518666,2,2,-2,0,-2,0,4,0
1481274131518666,-5,0,1,-3,1,-5,-3,-2
1481274131520596,-2,-5,-3,3,-5,1,2,-3
1481274131520596,2,-1,2,0,5,0,-2,0
1481274131532669,0,-2,-2,-5,-3,1,2,2
1481274131532669,1,-2,-2,0,5,-3,-5,-3
1481274131541597,1,3,2,6,0,2,1,3
1481274131541597,-1,-1,-2,-5,-33,-4,-6,-3
1481274131556599,-1,-1,0,5,57,0,2,-2
1481274131556599,-1,-3,-2,-8,-22,1,6,-1
1481274131569598,0,-1,1,0,1,-2,0,1
1481274131569598,0,-2,-1,-3,-9,-2,-7,-2
1481274131578669,-1,-1,0,0,-18,-4,-3,0
1481274131578669,-3,-1,-1,0,12,-1,-3,-1
1481274131580599,-1,-2,-1,1,10,-2,-1,-2
1481274131580599,-1,-1,-2,-6,-14,-3,0,-1
1481274131592608,-1,-1,-3,0,-15,-5,-7,-3
1481274131592608,0,0,0,3,6,-1,-3,1
1481274131617666,-2,-1,-2,-3,-1,3,-2,1
1481274131617666,-2,-2,-1,-1,16,3,2,0
1481274131618666,-1,3,0,-3,-24,0,4,1
1481274131618666,-5,-8,-1,3,19,-2,-3,0
1481274131622668,-1,-1,-2,-7,21,-1,-1,-1
1481274131622668,-1,-1,0,1,3,-1,-1,-1
1481274131638669,0,-3,-1,-1,-12,-2,-2,-1
1481274131638669,-1,3,0,2,4,1,-3,0
1481274131640670,-1,-1,0,-4,-34,-8,-10,-3
1481274131640670,-1,2,1,9,68,2,5,2
1481274131652740,-1,-2,0,0,-20,-4,-2,0
1481274131652740,2,-1,-2,-1,5,-2,-5,-1
1481274131668701,0,-1,1,0,-11,-3,-3,-3
1481274131668701,-1,1,1,-1,-30,0,-3,-2
1481274131683758,-2,0,0,1,51,1,-1,1
1481274131683758,-1,-1,-3,-3,-14,6,4,1
1481274131685759,0,-1,-3,1,23,-2,2,1
1481274131685759,0,-2,-2,0,-17,0,-2,-2
1481274131698853,-1,-1,0,0,-8,-1,0,0
1481274131698853,0,-2,-3,-5,1,-3,-3,-2
1481274131699829,-2,1,-2,0,-9,-1,-1,0
1481274131699829,1,0,0,-2,-24,-2,-5,0
1481274131720948,0,-3,0,-3,15,-3,-3,-3
1481274131720948,0,6,-1,-3,12,2,-1,0
1481274131722831,-1,-5,-2,1,-13,3,3,0
1481274131722831,-2,-2,-3,0,9,2,7,0
1481274131735831,-2,0,-1,-4,-28,0,-4,-4
1481274131735831,0,0,-1,1,-8,-2,1,0
1481274131742835,0,1,2,1,4,-1,2,-1
1481274131742835,-3,-2,-1,3,15,2,-2,0
1481274131758847,1,1,-1,-5,-24,1,-1,-1
1481274131758847,-1,-2,-2,2,34,3,5,1
1481274131759834,-2,-2,-3,-2,-13,3,0,-1
1481274131759834,-2,0,-1,-2,-4,-6,-4,0
1481274131781842,-4,-1,-2,-4,-29,0,1,1
1481274131781842,-1,-1,1,7,44,-1,-2,-2
1481274131783841,0,-1,-1,-6,-19,-1,3,-1
1481274131783841,1,2,-1,1,2,0,1,0
1481274131795843,-2,0,1,-4,15,2,0,-2
1481274131795843,-2,-1,1,-3,-31,-6,-4,1
1481274131802952,0,2,0,0,-7,0,-2,1
1481274131802952,0,-1,0,-4,21,1,4,-1
1481274131817940,2,-5,-3,-1,-1,-2,-4,0
1481274131817940,-7,-4,-2,-2,-14,0,0,-3
1481274131832939,0,-2,0,3,4,0,2,-1
1481274131832939,-1,3,1,1,-16,-5,-6,0
1481274131833940,-6,-14,-2,0,-2,-5,-3,-3
1481274131833940,2,-2,1,1,-2,0,0,-1
1481274131841021,-1,0,-2,-1,3,0,-1,0
1481274131841021,-2,-3,-3,-3,-8,-3,-2,-1
1481274131855983,1,7,1,3,9,1,2,-1
1481274131855983,-1,-5,-2,2,-13,-2,-2,-1
1481274131862947,0,-2,0,-4,-23,0,1,1
1481274131862947,0,1,0,-7,-9,0,-2,-1
1481274131894456,-3,1,0,8,30,8,12,1
1481274131894456,1,1,-3,-9,-19,-5,-2,-1
1481274131896455,0,0,0,0,14,1,-3,-1
1481274131896455,-1,-2,-2,0,-3,0,-1,-1
1481274131896455,-1,-1,-2,-2,-11,5,2,-3
1481274131896455,1,2,1,-1,-4,-1,0,0
1481274131901463,0,2,-1,-1,-2,-3,0,-1
1481274131901463,-2,-2,1,5,36,2,-2,-1
1481274131915471,0,1,0,-4,-6,-5,-5,1
1481274131915471,1,0,-1,-4,-12,1,-1,-1
1481274131922535,-2,0,-1,-1,-7,-3,0,0
1481274131922535,-5,-9,1,-1,0,1,2,-1
1481274131946471,0,1,1,2,-7,-6,-5,-2
1481274131946471,0,-1,0,-3,-5,0,0,0
1481274131947467,-1,-1,-2,1,13,0,4,0
1481274131947467,0,1,-1,-2,4,1,2,-3
1481274131952554,-1,0,-2,-1,-4,2,5,0
1481274131952554,-1,-1,1,0,7,0,-3,1
1481274131961470,-1,-2,0,5,8,2,-3,-1
1481274131961470,0,0,-3,-6,-18,-4,-2,0
1481274131975508,2,3,0,-2,-14,-1,-2,0
1481274131975508,-7,-3,-3,3,12,-1,0,-2
1481274131982478,-2,-2,-3,-8,-8,-1,0,-1
1481274131982478,-1,-1,1,4,17,-5,-6,-1
1481274131998209,-1,-3,0,-1,-38,-2,-4,-1
1481274131998209,1,1,-4,-4,-11,-4,1,1
1481274132005142,-1,-1,0,5,30,-2,-6,-1
1481274132005142,0,-1,0,-4,-26,2,0,-1
1481274132021230,0,1,0,2,24,-1,-4,1
1481274132021230,-1,2,0,3,-8,3,-2,0
1481274132023145,-2,-1,-2,-2,-4,2,6,2
1481274132023145,1,0,-1,0,-4,-1,0,-2
1481274132036147,-1,-1,-3,-5,-25,-4,0,-1
1481274132036147,-1,-1,-1,2,43,1,-1,-1
1481274132042165,-1,-2,1,-2,-27,-7,-6,-2
1481274132042165,-3,-1,-2,1,2,4,5,1
1481274132058144,0,-1,0,1,7,-4,-2,-1
1481274132058144,-1,0,1,-2,-36,-7,-5,-2
1481274132065141,2,1,0,1,11,0,-1,-2
1481274132065141,0,-1,1,-1,19,-4,-1,-1
1481274132081650,-4,-2,-3,-5,1,3,-2,-1
1481274132081650,-3,-2,1,1,2,9,12,2
1481274132083148,-2,0,0,0,15,0,-1,0
1481274132083148,0,0,0,-1,-16,-3,-7,-2
1481274132096150,-3,-1,1,2,4,-2,0,-2
1481274132096150,-2,-2,0,3,14,-2,-5,-4
1481274132109720,-1,-3,-4,-7,-25,0,0,2
1481274132109720,0,-1,1,4,18,2,-2,-1
1481274132118658,3,1,-2,-5,1,-3,0,1
1481274132118658,2,0,1,-2,-11,-2,-3,-1
1481274132124722,-3,-4,-9,-17,-12,-2,-1,-3
1481274132124722,0,0,-3,-5,-32,-3,-2,0
1481274132148731,0,-2,-2,3,35,1,-2,1
1481274132148731,-1,-2,-1,0,8,0,5,0
1481274132150660,0,0,3,3,1,1,1,0
1481274132150660,-2,-3,0,-2,-6,-2,1,0
1481274132171685,0,-1,-1,-4,3,0,1,-2
1481274132171685,0,-1,-3,-2,-20,-4,-1,-3
1481274132172661,2,2,-1,-2,-7,-3,-2,-1
1481274132172661,-1,1,-2,-4,-8,-1,-3,-1
1481274132186253,0,0,0,5,21,4,3,1
1481274132186253,-1,-2,-1,-2,4,-4,-5,-1
1481274132188253,1,0,2,3,-4,-2,-2,-2
1481274132188253,1,0,-2,1,19,2,-3,-1
1481274132201764,-2,0,-2,0,-15,-2,-5,-2
1481274132201764,0,1,-3,-4,6,-2,1,-2
1481274132202760,0,0,-2,3,5,-4,-1,-1
1481274132202760,-1,-2,-1,-1,-12,-3,3,-1
1481274132215762,-1,-1,-2,-2,-24,-3,2,-2
1481274132215762,-2,0,-1,2,50,3,1,1
1481274132222761,-2,-3,1,-4,-30,0,-2,-1
1481274132222761,-2,0,-4,3,12,-2,0,-2
1481274132237762,0,-3,-1,-2,-10,0,0,-1
1481274132237762,1,1,0,0,-16,-3,-1,-1
1481274132244764,1,2,2,4,31,1,-6,-4
1481274132244764,-2,0,-2,-3,-18,0,4,0
1481274132261779,0,1,0,-1,8,-2,-2,0
1481274132261779,-1,0,-2,-6,-23,-2,-5,-1
1481274132262764,-2,-1,1,4,10,-1,-1,0
1481274132262764,0,-2,-3,0,7,-3,-1,0
1481274132274839,-1,-2,-2,-2,-13,-6,-1,-1
1481274132274839,0,-2,-2,-1,7,0,1,0
1481274132283844,1,0,1,-2,-38,2,4,4
1481274132283844,1,-1,1,1,15,-2,0,0
1481274132298476,-1,1,0,2,17,-1,-1,-1
1481274132298476,-2,1,0,-1,-38,-7,-11,-2
1481274132312415,-2,1,-2,3,23,1,2,-1
1481274132312415,1,0,-1,-4,2,0,2,0
1481274132321411,-2,-3,0,-3,-6,0,-1,0
1481274132321411,-1,-2,-2,-3,-1,-3,-3,-2
1481274132322392,0,-3,-1,5,23,3,6,-2
1481274132322392,0,-1,0,-1,15,0,-4,-1
1481274132335394,-1,2,-1,1,-2,-2,-1,-3
1481274132335394,2,1,-1,-2,-1,-2,-4,-1
1481274132343465,-5,-1,0,-2,5,-1,-4,0
1481274132343465,-2,0,-1,-3,-2,1,-3,0
1481274132366400,0,-3,0,-1,7,1,3,-2
1481274132366400,1,-1,2,8,-15,-1,2,2
1481274132367394,2,-1,1,4,4,1,0,-1
1481274132367394,0,-2,-4,-4,-10,-2,-1,-3
1481274132381396,-1,-1,-2,2,-2,-2,-4,1
1481274132381396,0,-1,1,-5,0,2,3,0
1481274132382902,-2,1,0,7,-2,-6,3,1
1481274132382902,-1,-1,-1,0,-16,-1,0,-2
1481274132394902,1,-2,-1,-6,20,-1,-5,-1
1481274132394902,0,-1,1,9,23,4,0,-1
1481274132403498,0,-1,-2,-8,-12,-4,-5,2
1481274132403498,0,-1,0,-2,-7,0,3,1
1481274132418427,-3,1,0,-2,0,2,0,1
1481274132418427,1,-1,0,-2,-6,-1,-1,0
1481274132425431,-2,-3,-2,-6,-21,-3,1,0
1481274132425431,-3,-1,-3,-3,10,1,-4,0
1481274132441427,-1,1,1,2,-8,-5,-3,0
1481274132441427,0,1,3,15,2,6,7,1
1481274132442426,-1,-2,0,-21,3,1,-2,-3
1481274132442426,-1,-4,-13,-24,-10,-4,-1,0
1481274132455429,-2,1,0,9,12,2,3,0
1481274132455429,-3,-1,-2,-7,-1,-1,-1,-1
1481274132463499,1,1,1,7,-5,-1,-1,-1
1481274132463499,0,2,5,6,-17,2,0,-2
1481274132478431,-1,-1,0,-6,47,0,-1,-2
1481274132478431,-1,-3,-4,1,-8,-2,-1,-2
1481274132485009,-1,-1,3,10,4,2,-2,-2
1481274132485009,-2,-3,-5,-15,-17,-3,5,-1
1481274132502089,0,-2,-7,-5,-10,1,1,-3
1481274132502089,-2,-1,0,5,-4,-2,-1,-3
1481274132503016,1,0,-2,-1,0,0,1,0
1481274132503016,-3,-1,2,2,-1,0,3,1
1481274132515019,-1,-2,-2,-2,-18,0,2,0
1481274132515019,0,1,-1,-5,8,-6,-4,-2
1481274132524020,-2,-4,-5,-9,26,5,0,0
1481274132524020,-1,2,11,26,1,2,-4,1
1481274132538089,0,1,7,4,-20,-14,-2,-1
1481274132538089,-4,-6,-15,-32,-26,-7,-4,-1
1481274132545030,0,2,1,11,21,0,-2,0
1481274132545030,1,0,3,10,-16,-2,-3,0
1481274132561090,-2,-1,-3,-6,10,5,0,1
1481274132561090,2,1,2,9,-19,-2,1,0
1481274132563019,-2,-1,-2,-4,-1,-4,-1,-1
1481274132563019,-1,-2,-3,2,13,0,-2,-3
1481274132575091,-1,-3,0,-3,-9,1,0,-1
1481274132575091,0,-1,0,0,14,1,-1,1
1481274132584529,-2,-4,-4,-4,-16,0,1,1
1481274132584529,3,2,5,3,6,-1,0,1
1481274132606040,0,1,-1,-1,5,6,5,1
1481274132606040,-1,0,-1,-3,4,4,1,1
1481274132608040,0,1,-1,1,-21,-10,-6,-4
1481274132608040,-3,-1,-2,-1,49,1,-1,-1
1481274132621037,-2,-3,-2,-4,-9,-4,-3,-1
1481274132621037,-2,-1,0,4,1,2,-1,-3
1481274132623037,-1,-1,-1,-8,-1,8,5,0
1481274132623037,-2,-5,-1,0,-5,-8,-2,-1
1481274132635038,1,0,-1,-2,-23,1,-5,0
1481274132635038,0,0,1,19,44,1,-3,-2
1481274132644037,-2,-2,4,5,-1,4,-4,-1
1481274132644037,-3,-3,-12,-42,-24,-6,-2,-3
1481274132666040,-2,-1,-4,9,21,-2,-2,-3
1481274132666040,0,-1,0,-3,-8,-2,-1,-1
1481274132668040,2,4,4,10,-23,-3,1,-1
1481274132668040,1,1,7,5,8,4,2,0
1481274132681621,0,-2,-4,9,-9,-3,-5,-2
1481274132681621,-1,0,-1,-3,12,-3,-5,-1
1481274132683120,-2,1,-1,-2,-12,-6,-1,1
1481274132683120,1,-2,0,8,5,-3,-3,0
1481274132695122,0,-1,4,6,-3,-1,-4,-2
1481274132695122,-2,-1,-9,-18,-10,-1,-2,-1
1481274132703705,0,0,-1,3,4,1,-2,0
1481274132703705,-1,3,1,3,-38,-5,-1,0
1481274132726709,0,1,2,18,31,1,-1,0
1481274132726709,1,-3,-1,-1,-18,-1,4,0
1481274132727704,-2,-1,-7,-12,20,-2,-4,-2
1481274132727704,-1,1,-2,-1,-15,-2,-1,-2
1481274132740706,-1,0,-1,1,26,0,0,-1
1481274132740706,0,0,1,-5,-33,-1,2,0
1481274132747707,0,-4,-5,-8,-2,1,4,-1
1481274132747707,3,2,7,17,13,8,8,3
1481274132754778,0,-2,-6,-23,-15,-2,1,0
1481274132754778,-1,0,0,-10,-6,-4,0,-1
1481274132763707,1,-1,1,0,14,-2,-3,-1
1481274132763707,-1,-5,-3,5,6,-2,-2,-1
1481274132777780,0,1,1,-2,-25,-2,2,0
1481274132777780,-1,-5,2,-14,1,6,6,2
1481274132785213,-4,-4,-10,-10,-30,-2,-2,-1
1481274132785213,-1,-1,1,2,50,1,-6,-1
1481274132800806,0,1,2,-9,-6,-1,-3,-2
1481274132800806,-1,0,2,28,-2,-3,-4,1
1481274132807824,1,0,-4,-2,1,-2,-3,0
1481274132807824,-2,-2,-5,-4,-6,-1,0,0
1481274132814806,0,-2,-4,-17,-1,-3,-3,0
1481274132814806,-2,-1,-1,5,10,-4,-8,-3
1481274132831806,-1,0,5,-2,-2,0,0,2
1481274132831806,0,0,-5,-7,-11,0,-1,-3
1481274132837880,-1,-4,2,20,-11,-1,1,-1
1481274132837880,-1,-2,-1,-5,21,1,1,2
1481274132844878,0,-2,-5,-6,-27,-3,0,-3
1481274132844878,0,0,2,4,39,0,-3,-3
1481274132860879,-2,-2,3,-4,-13,0,2,-2
1481274132860879,0,-2,-4,-12,-17,-3,-5,-2
1481274132867839,-1,2,3,3,1,-2,0,-1
1481274132867839,-1,0,0,16,-14,-4,0,0
1481274132891889,-1,3,1,3,23,2,0,0
1481274132891889,1,0,-5,-1,-10,2,4,-2
1481274132892888,-1,-2,-5,-2,10,-1,-1,-3
1481274132892888,-1,-1,0,-4,-14,0,0,-1
1481274132905982,-3,-3,-3,11,9,2,-1,-2
1481274132905982,0,2,1,6,-1,-1,0,-1
1481274132907910,-2,0,1,-2,10,-1,-1,-1
1481274132907910,0,-1,-1,-4,-5,-1,2,2
1481274132920984,-1,-1,2,-8,-6,-4,-3,0
1481274132920984,-1,-1,2,10,9,-1,0,0
1481274132927912,0,-2,-6,-13,1,0,2,0
1481274132927912,-2,-1,-2,2,-6,0,-3,-1
1481274132943983,0,1,1,-3,-18,-1,-2,0
1481274132943983,1,0,-3,-3,-1,-1,0,1
1481274132944912,0,-1,1,-2,6,0,-2,0
1481274132944912,0,0,-2,0,0,0,0,-2
1481274132958913,-1,0,-5,-6,-27,-3,-1,-1
1481274132958913,-1,-1,0,-11,16,0,0,-3
1481274132964985,-1,-1,0,5,16,-1,-1,1
1481274132964985,-2,-4,-11,-19,-29,-5,-3,0
1481274132980986,-3,0,-2,2,-3,1,0,0
1481274132980986,-2,-2,3,12,36,0,-1,-2
1481274132987422,0,-1,4,0,-16,-3,-2,1
1481274132987422,-1,-1,-5,-27,-5,0,1,-2
1481274133003437,1,0,9,17,-35,2,1,1
1481274133003437,-2,2,-2,-7,45,0,-1,3
1481274133019369,-3,-5,-4,-4,-11,1,0,-1
1481274133019369,1,-1,5,9,15,-4,-5,-2
1481274133019369,1,-2,-7,-11,-2,-1,5,0
1481274133019369,0,0,5,16,-17,5,6,0
1481274133025369,1,0,6,17,-4,3,2,0
1481274133025369,-1,1,-3,-18,-3,1,0,0
1481274133040449,0,0,0,-3,17,0,-2,-2
1481274133040449,1,-2,4,-2,-34,-7,-6,-1
1481274133047370,-1,-1,-5,-1,20,-2,-2,-2
1481274133047370,-2,-3,-3,-4,-32,0,3,1
1481274133063443,-2,-1,-3,3,41,0,-1,-2
1481274133063443,-1,-1,-4,-14,-11,-2,-2,-2
1481274133065370,-1,-2,3,8,-19,0,-2,0
1481274133065370,0,0,6,18,45,2,-1,0
1481274133078377,-2,-3,-3,7,-31,-2,-2,-1
1481274133078377,-3,-3,-11,-41,-9,-3,-1,-2
1481274133085453,1,2,0,27,22,-3,-1,-2
1481274133085453,0,-1,-6,-17,-31,-7,-3,1
1481274133100971,-2,-1,-3,7,17,-2,-8,-2
1481274133100971,-1,0,2,9,-2,4,4,0
1481274133107042,1,0,0,-6,-10,-3,4,1
1481274133107042,-1,-2,-1,8,7,-3,1,-1
1481274133124043,-1,-1,2,-8,16,0,2,3
1481274133124043,-2,-2,-1,7,-18,-3,-5,1
1481274133124973,-3,-1,-2,-5,6,0,-5,-1
1481274133124973,-2,1,1,10,0,-1,-3,1
1481274133137978,0,-1,-5,-8,-32,-4,-2,-1
1481274133137978,2,-1,1,-7,65,2,-1,-1
1481274133144977,-1,0,4,18,17,-1,0,-1
1481274133144977,-1,-1,-1,-3,-8,0,-1,-2
1481274133160976,-1,-3,-4,-11,-2,-2,0,1
1481274133160976,-2,1,-1,11,-19,-3,-2,1
1481274133166977,0,1,1,-14,-4,2,3,0
1481274133166977,-3,-2,-1,-5,-5,-6,-4,-3
1481274133184055,0,-1,-7,-4,8,1,0,-3
1481274133184055,0,-1,1,4,0,1,-3,0
1481274133185555,0,2,4,11,0,-4,-6,-2
1481274133185555,1,-1,-4,-5,-15,1,2,-2
1481274133197567,0,-2,-5,-12,-2,-3,0,-2
1481274133197567,-3,0,1,-4,-32,-3,1,0
1481274133207615,-2,0,-3,2,43,-3,-3,-2
1481274133207615,1,1,3,18,18,0,1,0
1481274133220599,-1,-2,-1,-6,-30,-3,-1,-2
1481274133220599,1,-2,-3,2,23,2,0,0
1481274133227586,0,-1,-1,-9,-36,-2,0,-1
1481274133227586,-1,-3,3,9,5,2,-1,-2
1481274133243643,-2,-1,-4,-20,31,3,1,-2
1481274133243643,-1,-1,1,2,-24,-4,0,-1
1481274133245565,-1,-1,-4,-9,-8,1,-1,-2
1481274133245565,-2,-2,-3,-1,2,0,-2,0
1481274133257640,2,3,7,5,1,0,-2,-2
1481274133257640,-1,-3,-4,10,-5,-3,-3,-3
1481274133266567,1,-1,-2,5,-5,-1,-1,0
1481274133266567,0,-1,-5,-26,-13,-3,1,3
1481274133280637,-1,0,4,24,35,0,-4,0
1481274133280637,0,-1,0,-9,1,0,2,1
1481274133287574,-1,-4,-7,0,-13,-3,0,1
1481274133287574,-1,-1,4,10,-1,1,0,-2
1481274133304178,0,0,1,-9,-7,0,2,0
1481274133304178,-1,-1,5,10,-5,-5,-4,-1
1481274133305177,-2,0,-1,-4,-4,1,-3,-1
1481274133305177,0,-1,0,-1,8,2,-2,-1
1481274133325179,-1,-1,5,3,-5,0,2,0
1481274133325179,-1,0,-5,0,-1,0,-1,-2
1481274133326179,-3,-2,0,-7,-11,-4,-1,1
1481274133326179,-1,1,2,4,18,-2,-7,-3
1481274133341180,-2,-2,-2,4,-18,1,-4,-3
1481274133341180,-1,1,-2,-4,-8,-1,2,1
1481274133347250,-2,-2,-4,-9,17,-3,-2,-4
1481274133347250,-1,-1,-1,-4,-3,1,1,-1
1481274133363251,0,0,-5,-2,-17,-1,-1,-1
1481274133363251,0,0,-1,-15,-7,-2,-1,0
1481274133364180,-1,2,1,3,3,-2,-4,0
1481274133364180,-1,-1,-4,5,-7,-2,1,0
1481274133385760,2,0,-4,-17,6,-1,1,0
1481274133385760,-2,0,2,0,2,3,0,-2
1481274133386759,-1,-2,4,11,-10,-1,0,1
1481274133386759,-1,-1,-6,-16,13,1,3,-1
1481274133401337,-1,1,1,3,-21,-2,0,1
1481274133401337,-2,-4,1,11,33,4,6,0
1481274133407340,-1,-2,-1,-15,-4,1,2,-3
1481274133407340,-1,0,-4,-6,-7,-1,0,0
1481274133423421,-4,-1,0,-3,10,-7,-5,-2
1481274133423421,-1,1,-3,-5,-24,-4,-2,0
1481274133424341,1,1,-2,1,1,-3,-1,-1
1481274133424341,0,-2,3,12,6,3,2,-1
1481274133445364,-1,-2,-4,-23,-10,-3,-4,-1
1481274133445364,0,1,1,10,13,-4,-3,-3
1481274133446342,1,-2,0,6,-5,-1,-2,-2
1481274133446342,-1,0,-2,-11,-3,-2,-3,-3
1481274133461341,1,-1,0,14,-11,-1,1,2
1481274133461341,-1,-3,-8,-13,-2,3,-1,-1
1481274133467341,-2,-1,-5,-8,4,2,1,-1
1481274133467341,-3,0,4,11,-1,-3,-4,-1
1481274133483510,-1,0,1,9,12,2,1,0
1481274133483510,2,-1,-1,-1,-22,-2,-1,1
1481274133484001,0,-2,0,-18,-23,-5,0,1
1481274133484001,0,-2,-6,1,33,1,-1,0
1481274133505540,-3,-2,0,-5,2,1,-1,-1
1481274133505540,0,1,0,-1,-11,-5,-1,-1
1481274133506541,-1,-2,0,-2,-32,0,-4,0
1481274133506541,0,1,5,14,23,-3,0,0
1481274133521539,-1,-1,-6,-13,9,3,2,0
1481274133521539,-1,-1,-1,2,2,3,-2,0
1481274133527541,-1,0,1,-1,-6,0,1,-1
1481274133527541,-1,-2,1,2,-13,-2,0,0
1481274133550543,-1,-1,-2,9,3,-1,1,0
1481274133550543,-1,-1,-3,-24,-14,0,3,0
1481274133551544,1,2,4,14,26,2,2,1
1481274133551544,-2,-5,-8,-35,-17,2,5,1
1481274133565613,0,-2,4,14,17,0,2,-1
1481274133565613,0,-1,-2,0,-34,-3,-1,0
1481274133566543,-2,-2,-2,5,51,3,0,0
1481274133566543,-1,-2,2,-7,-24,-1,-1,1
1481274133588554,-1,0,2,5,-13,-4,-3,-2
1481274133588554,0,0,-9,-20,19,-1,0,0
1481274133589053,-1,0,5,9,-3,3,2,-1
1481274133589053,0,1,1,7,1,0,-3,-2
1481274133610669,0,-2,-2,-4,-14,0,0,-2
1481274133610669,-1,0,1,6,30,-2,-7,-2
1481274133611598,0,-1,-2,-7,1,-4,-2,-2
1481274133611598,0,0,0,2,-6,-2,-2,-1
1481274133625599,-1,-1,4,2,-33,-3,-1,1
1481274133625599,-1,-1,-6,4,14,-1,0,1
1481274133626599,-1,-4,-1,-4,31,-2,-3,-2
1481274133626599,-1,1,1,-13,-13,-2,1,-2
1481274133641598,-1,-2,-1,5,4,3,4,3
1481274133641598,0,0,5,11,-7,-5,-4,-2
1481274133647681,-2,1,-5,-9,-6,0,-5,-1
1481274133647681,-2,-1,2,10,1,2,1,-2
1481274133664599,0,0,-5,-8,-3,0,0,-3
1481274133664599,-2,-2,0,-2,9,-2,-3,-1
1481274133665600,0,1,-1,8,-4,1,1,2
1481274133665600,-1,-2,1,-3,-39,-4,-3,-4
1481274133686111,-3,0,-7,-8,45,3,-3,1
1481274133686111,-1,-3,0,6,-26,2,4,-1
1481274133686609,-1,-2,0,3,0,0,0,-1
1481274133686609,-1,-2,-4,-2,-19,-1,0,0
1481274133701674,1,-1,1,1,-6,-5,-1,-3
1481274133701674,-1,-1,5,7,5,0,2,2
1481274133715675,-1,-3,-4,-8,-3,-3,1,0
1481274133715675,-1,2,-2,-10,9,-1,-3,-1
1481274133722676,0,-2,1,-14,-23,-4,-1,0
1481274133722676,-1,0,-1,5,35,-1,-4,-2
1481274133729747,1,0,2,-5,-32,1,-3,-2
1481274133729747,1,0,-4,0,21,0,3,0
1481274133745679,-1,0,2,5,-2,-2,-1,-2
1481274133745679,1,-1,-3,-3,-21,-2,0,-1
1481274133746677,-1,1,-1,-5,8,-6,-4,-1
1481274133746677,-1,-4,-1,8,4,4,1,0
1481274133761680,0,0,3,14,-12,-1,-2,1
1481274133761680,-2,-4,-10,-19,-1,3,0,0
1481274133775680,-2,-1,-6,8,7,-2,-2,1
1481274133775680,-1,1,0,4,8,-1,-2,-1
1481274133790693,-1,3,1,8,17,-1,-6,-3
1481274133790693,1,0,7,4,-37,-6,-1,-1
1481274133791692,0,-1,0,-9,4,3,3,-1
1481274133791692,-2,-3,-2,6,8,2,0,0
1481274133805788,1,-1,0,-7,-10,-1,-1,0
1481274133805788,-2,0,4,10,16,0,1,-2
1481274133806715,0,-2,-8,-20,-18,-1,-2,-1
1481274133806715,-3,0,0,3,-13,-5,-3,-1
1481274133830718,0,-2,-3,5,31,1,-1,-2
1481274133830718,0,-2,-1,-9,8,-1,-1,-2
1481274133830718,-1,-1,3,-1,-18,-4,0,-2
1481274133830718,0,-1,-1,3,29,2,-1,0
1481274133842809,-2,-1,-3,-7,-15,-2,0,1
1481274133842809,-3,0,-10,0,13,3,2,-1
1481274133849721,-2,0,4,9,-13,1,4,-1
1481274133849721,1,3,1,10,-15,-4,-4,1
1481274133865719,0,-1,-8,-37,37,2,2,1
1481274133865719,-2,0,0,-15,-15,1,-2,0
1481274133866719,0,0,1,2,-3,-3,-2,-2
1481274133866719,1,-2,-3,1,-8,1,2,-1
1481274133889731,0,-2,3,6,-4,-3,-3,0
1481274133889731,1,-1,5,12,-20,0,2,0
1481274133890734,-1,-4,-3,-8,12,0,-1,-1
1481274133890734,-2,0,-1,-6,1,-5,-2,-3
1481274133902803,0,1,1,12,-2,3,-1,2
1481274133902803,-1,2,2,3,-1,-5,-5,-1
1481274133909812,-2,1,-2,-2,-22,3,3,1
1481274133909812,0,0,-1,8,20,-4,-4,-2
1481274133925896,0,-2,2,-4,-5,1,-1,-2
1481274133925896,0,0,4,0,-6,-3,-4,-1
1481274133926780,-2,0,1,0,-33,0,1,-4
1481274133926780,-3,-2,1,-4,24,0,-1,-2
1481274133941781,-1,0,0,3,18,1,2,-1
1481274133941781,0,-1,0,7,-7,-1,1,-1
1481274133947853,0,-2,2,8,14,2,-2,-2
1481274133947853,-2,1,-5,-14,-37,-5,0,0
1481274133962783,-1,-2,-1,7,-4,0,0,-2
1481274133962783,-1,-4,-9,-41,32,-2,-1,-1
1481274133969803,-1,0,4,14,14,-2,-1,1
1481274133969803,1,-1,-2,-11,-21,-2,-2,-2
1481274133986290,-2,0,-1,9,27,0,1,-1
1481274133986290,-2,-1,2,5,-53,-4,-4,0
1481274133992791,-2,-2,-12,-25,26,-3,-4,-3
1481274133992791,-1,-3,3,-11,-29,-3,-3,-1
1481274134001888,-1,-2,0,5,38,1,-2,-2
1481274134001888,0,1,0,5,19,2,2,-2
1481274134007899,-1,0,-1,3,-13,0,0,0
1481274134007899,-1,-1,0,-1,-4,-1,-2,1
1481274134022909,-3,-3,-2,-15,-54,-6,-2,-3
1481274134022909,0,1,2,17,92,6,5,1
1481274134029962,-2,-3,0,-3,-1,0,1,0
1481274134029962,0,0,-2,1,-9,0,2,-1
1481274134052964,0,-2,0,0,-22,1,-1,1
1481274134052964,-1,0,1,4,-9,-2,-4,-2
1481274134053891,-1,-1,2,6,0,-1,-1,-2
1481274134053891,-1,-2,-8,-29,23,2,-3,-3
1481274134061895,-1,-1,-9,-8,-20,-1,3,-1
1481274134061895,-2,1,3,1,-24,-2,1,-1
1481274134067901,1,-2,2,6,4,-2,-5,0
1481274134067901,-2,-1,0,9,2,0,1,1
1481274134082896,0,1,1,0,7,-4,-2,0
1481274134082896,0,-1,-4,-1,-44,-1,-1,-2
1481274134090405,0,0,1,9,77,-1,-1,0
1481274134090405,-1,-1,1,4,-31,1,2,1
1481274134107048,-2,-2,-2,2,-2,3,-2,-1
1481274134107048,-1,-2,-3,3,9,0,0,-4
1481274134108050,0,-1,-1,-9,-51,-7,-6,-1
1481274134108050,-2,0,-3,8,52,3,0,-2
1481274134122049,-1,2,1,-8,-13,0,-1,0
1481274134122049,-1,-1,2,0,-23,-4,-2,-1
1481274134127120,0,0,-8,-13,-19,0,0,1
1481274134127120,0,-1,0,6,17,2,2,-1
1481274134142121,0,-2,0,3,-1,-2,-3,-3
1481274134142121,-1,0,0,1,-1,-3,-1,-1
1481274134150051,-1,-1,2,9,-1,0,2,-1
1481274134150051,-1,-1,2,1,-4,-1,-2,-1
1481274134167051,1,1,0,13,-5,-3,-3,0
1481274134167051,-1,-5,-8,-37,-5,-1,0,-2
1481274134168051,-2,0,0,5,3,-3,3,-2
1481274134168051,0,2,2,5,8,3,2,1
1481274134189639,0,-1,-8,-14,-11,-1,0,1
1481274134189639,0,-1,2,18,15,1,-2,2
1481274134190638,0,-2,-1,-7,28,3,0,1
1481274134190638,-3,-5,-1,-4,-35,-5,0,-2
1481274134204643,-1,0,7,9,4,4,3,-1
1481274134204643,-3,0,-5,-3,-20,-4,-3,0
1481274134217642,0,-2,-3,3,-28,0,2,1
1481274134217642,-2,-2,-3,-5,36,-1,-3,-2
1481274134233644,-1,-1,-4,-31,-10,-2,-2,-2
1481274134233644,-2,-5,-2,22,3,-2,-4,-1
1481274134233644,0,0,0,-14,-8,-3,0,-3
1481274134233644,1,0,-2,3,0,0,-1,-4
1481274134241644,-2,1,3,4,-8,0,5,0
1481274134241644,0,1,5,0,19,1,1,0
1481274134247645,0,2,16,43,0,-1,-1,-2
1481274134247645,-3,-6,-25,-63,-31,-4,-2,-1
1481274134270649,-1,-1,-1,8,48,0,-3,-1
1481274134270649,-1,-1,-2,-5,-39,-1,0,1
1481274134271646,-1,3,5,25,61,2,2,1
1481274134271646,1,2,10,13,-26,-4,-3,-1
1481274134285657,-1,-4,-8,-30,-22,0,-2,-1
1481274134285657,1,0,-1,2,19,-1,1,-1
1481274134286655,0,-2,-6,-21,-30,-1,0,-1
1481274134286655,0,0,2,13,1,-1,0,-1
1481274134302393,-1,-1,-3,-1,15,-2,-1,1
1481274134302393,-1,1,11,28,10,1,-2,0
1481274134307466,-2,-3,-17,-65,-20,-2,-4,-3
1481274134307466,-3,-1,-2,16,5,1,2,2
1481274134330395,-1,-1,2,7,5,-1,0,0
1481274134330395,-1,-2,-2,6,-6,0,3,-1
1481274134331395,0,0,-1,10,-9,3,2,1
1481274134331395,1,2,3,-5,5,-1,-2,-1
1481274134345397,-1,0,-1,3,-18,-3,-1,-3
1481274134345397,0,-2,-2,-5,23,1,-2,-1
1481274134346394,-3,-2,-2,-4,-10,-5,-2,-1
1481274134346394,2,0,8,17,-33,-2,0,1
1481274134361395,-3,-1,0,17,51,1,1,-3
1481274134361395,-1,-2,-11,-34,-32,0,1,0
1481274134367398,-3,-2,-2,8,4,-2,-2,-1
1481274134367398,-1,-4,-24,-32,9,-1,-2,0
1481274134384906,0,-1,8,21,-28,-2,0,0
1481274134384906,0,0,-1,-6,17,0,-2,0
1481274134389908,1,0,-1,9,6,-2,0,0
1481274134389908,-1,0,5,-1,4,-1,0,0
1481274134405516,0,-1,-2,-3,17,-1,-3,1
1481274134405516,1,1,0,4,-11,1,0,0
1481274134406447,-2,-2,-6,-24,-15,-2,-2,-1
1481274134406447,0,-2,3,13,12,1,0,-2
1481274134421445,-2,-3,-6,-4,-33,0,-1,0
1481274134421445,-2,-2,8,8,37,-1,-3,0
1481274134427517,1,-2,3,1,-27,2,-1,0
1481274134427517,-1,2,7,9,18,-2,1,-2
1481274134442536,2,-2,-1,-9,0,-2,2,0
1481274134442536,-2,-3,-14,2,-13,-3,0,-2
1481274134449450,-1,1,2,7,-10,-4,-1,-1
1481274134449450,-1,-1,-5,-18,20,-3,-2,-1
1481274134465448,0,1,5,-1,-34,-3,-2,-2
1481274134465448,-1,-1,-1,-5,-32,0,0,-1
1481274134466448,-2,0,2,3,67,1,-2,-1
1481274134466448,-2,-1,-7,4,-16,0,-3,-2
1481274134481448,-1,-1,-4,-6,-18,4,0,-1
1481274134481448,-1,-1,-2,-11,8,-1,-1,-1
1481274134495959,-2,0,-1,5,-19,-4,-2,-2
1481274134495959,-2,1,9,19,12,0,0,1
1481274134502481,0,0,-4,-7,-2,-2,-2,-2
1481274134502481,-1,0,-4,-8,-7,1,2,-2
1481274134510482,1,-4,-14,-15,15,-1,2,0
1481274134510482,0,1,6,5,14,0,-2,0
1481274134525551,0,0,-2,9,-1,-2,0,0
1481274134525551,0,3,9,14,-5,1,-1,0
1481274134526482,0,-3,-6,5,-15,0,-1,-1
1481274134526482,0,-2,-3,-14,1,-1,-2,0
1481274134541482,1,0,1,3,2,-3,-2,0
1481274134541482,0,-3,-2,-3,9,2,-2,1
1481274134547484,-1,-1,5,25,18,2,1,0
1481274134547484,-2,-1,7,0,-39,-4,-2,-3
1481274134563530,1,0,-4,-9,24,3,1,-1
1481274134563530,-1,-2,0,2,3,-2,0,-2
1481274134570486,1,0,0,3,-4,-1,-3,0
1481274134570486,-3,-3,4,16,-24,-1,1,0
1481274134585995,0,-1,-3,-21,58,1,-1,-1
1481274134585995,-1,-2,-7,-19,-22,-7,-4,-2
1481274134586495,0,0,-7,-9,26,6,2,1
1481274134586495,0,0,0,-5,-37,-2,-2,-1
1481274134615518,-4,-3,-1,3,31,-3,-3,-1
1481274134615518,1,-1,-1,4,11,0,1,0
1481274134623588,-3,-4,1,-16,-7,-2,-1,-2
1481274134623588,2,1,5,21,-6,3,2,1
1481274134625517,-3,-4,-12,-32,-8,-5,-3,-3
1481274134625517,0,1,3,3,-2,0,-1,0
1481274134629590,-1,0,2,-6,-11,0,-1,-2
1481274134629590,-1,0,-8,-5,3,1,-1,-2
1481274134645519,-1,-1,8,25,-4,0,0,1
1481274134645519,-2,-4,-8,-5,15,-2,0,-1
1481274134652590,0,-2,-5,-1,-18,-1,1,-1
1481274134652590,0,-2,0,-6,23,0,0,2
1481274134661519,-2,1,2,15,-18,-1,0,-1
1481274134661519,-1,0,1,-9,-15,3,1,-2
1481274134667518,-2,-2,-1,5,6,-6,-3,-2
1481274134667518,0,-1,-1,9,-9,1,-1,-2
1481274134684028,1,2,6,-18,-25,-2,0,0
1481274134684028,-3,-2,-12,0,-9,-2,-3,-2
1481274134690028,-2,0,2,-6,-29,3,-2,-2
1481274134690028,0,-1,-1,6,35,-1,-3,-3
1481274134705105,-1,-2,-7,-22,-19,-1,-1,-2
1481274134705105,1,0,10,20,8,0,0,1
1481274134712148,0,0,-1,-5,-30,-6,-3,0
1481274134712148,-1,1,-1,5,10,2,1,0
1481274134728036,-1,-3,-4,-6,-9,1,0,-1
1481274134728036,-1,0,2,-1,21,-1,-2,-2
1481274134729035,-2,0,0,5,-2,0,1,-2
1481274134729035,-1,-1,0,-4,10,0,1,0
1481274134744036,2,1,-2,-17,7,3,2,-1
1481274134744036,-3,-1,-1,5,-24,-3,0,-2
1481274134750038,0,2,13,18,35,4,-1,-1
1481274134750038,-2,-4,-10,-15,0,-4,0,-2
1481274134765109,-2,-2,1,14,-10,3,4,-2
1481274134765109,1,1,2,14,6,-2,1,0
1481274134773043,1,-1,-4,-1,15,0,-5,-2
1481274134773043,-1,1,6,-16,-19,-4,0,0
1481274134788548,-3,-1,2,16,-23,-3,-4,-2
1481274134788548,-2,-5,-7,-22,-9,-3,-3,-1
1481274134789047,1,0,3,1,21,3,6,2
1481274134789047,-2,-1,-3,2,-5,-1,-3,-3
1481274134812570,1,-1,-1,12,-18,-2,1,2
1481274134812570,-1,1,3,-2,22,3,-1,-2
1481274134812570,0,0,-6,-15,-28,-3,-1,1
1481274134812570,0,0,-1,2,16,1,-2,-1
1481274134825576,-1,-1,8,13,-9,-3,0,0
1481274134825576,0,-1,-2,5,33,-5,-3,-2
1481274134832576,0,1,-1,-7,-3,3,1,0
1481274134832576,0,-3,-2,0,13,-1,-1,0
1481274134849576,-2,-1,-1,5,7,0,-3,0
1481274134849576,-2,-2,-2,-13,-19,-1,0,0
1481274134850572,-1,2,4,12,-18,-4,0,-1
1481274134850572,-3,-1,-2,-15,0,-1,1,1
1481274134863593,0,-3,-3,14,19,1,0,2
1481274134863593,-1,-1,-2,-5,-12,0,0,1
1481274134869669,0,-3,-7,-3,11,-1,1,-1
1481274134869669,-2,1,1,6,-10,-1,0,-1
1481274134885079,0,1,0,7,22,1,-3,0
1481274134885079,0,-1,-6,-17,-12,-2,0,0
1481274134892584,-1,-2,2,0,-21,-1,-1,-2
1481274134892584,0,0,-3,2,-8,-1,-1,-1
1481274134908635,-1,-1,-5,-10,26,-1,-1,-2
1481274134908635,0,-2,5,9,-14,4,3,0
1481274134908635,-2,-2,-1,-7,31,2,0,-1
1481274134908635,-1,-1,-5,-3,-23,-3,-5,-2
1481274134924633,0,-1,5,5,-13,0,-3,-3
1481274134924633,1,2,1,3,1,-1,-1,-1
1481274134929634,0,0,-2,-6,-3,-3,-1,-1
1481274134929634,-1,-2,-5,-5,-3,-1,0,-1
1481274134944704,-2,-3,4,9,4,-1,-1,0
1481274134944704,-1,1,-7,-19,20,-2,-3,-2
1481274134952675,2,0,1,-2,-1,-3,-1,0
1481274134952675,1,3,4,16,-34,-3,-5,-1
1481274134968643,-2,0,-3,-6,16,-5,3,1
1481274134968643,-2,-2,-8,-38,1,-1,-2,-1
1481274134968643,-2,-3,-9,5,-5,-2,-2,0
1481274134968643,-2,-1,1,3,4,-1,-1,0
1481274134984143,0,-1,-1,4,-20,0,0,-2
1481274134984143,-1,0,9,16,-4,-2,1,0
1481274134990147,-1,-2,-1,-5,26,3,0,0
1481274134990147,-2,-2,-3,0,5,1,0,-2
1481274135005239,-1,-1,-4,-13,-7,0,0,0
1481274135005239,-1,-1,3,9,15,-5,-4,-2
1481274135012159,0,1,1,-3,-24,-1,-1,-4
1481274135012159,-1,-1,-2,-6,13,1,3,1
1481274135028160,1,1,1,-9,3,0,-2,-4
1481274135028160,0,-1,1,31,-9,-1,-2,-1
1481274135029157,-1,-1,-4,-21,-14,-3,-7,-3
1481274135029157,-4,-5,-1,5,20,1,1,-1
1481274135052158,-2,2,2,-5,-10,-1,-3,-1
1481274135052158,-2,1,1,2,-28,0,0,1
1481274135053158,-3,-1,4,7,31,2,4,-1
1481274135053158,0,-3,-5,-14,-15,0,-2,1
1481274135065244,0,0,-3,-2,-7,-3,-2,-1
1481274135065244,0,0,3,5,25,-2,-3,-4
1481274135072244,0,2,1,-1,-20,0,2,1
1481274135072244,2,-1,3,20,24,0,0,0
1481274135088169,0,-3,-12,-43,-6,-2,-3,-1
1481274135088169,-2,-2,-5,1,-15,0,-1,0
1481274135089166,1,2,0,-4,3,-1,0,0
1481274135089166,0,0,-2,1,16,0,1,-1
1481274135104179,-1,2,3,14,-17,-5,-2,-2
1481274135104179,-2,-2,-2,-4,24,0,0,-1
1481274135110194,-1,-4,-6,-2,-1,0,-2,1
1481274135110194,0,0,2,-1,-10,-2,-2,-3
1481274135126180,-1,-1,2,5,-9,-3,-1,-2
1481274135126180,-1,0,2,1,-33,3,0,0
1481274135132182,0,-1,15,19,41,2,-2,-1
1481274135132182,-1,-3,-15,-33,11,-3,-4,-3
1481274135148264,-1,-2,0,6,9,0,-2,-1
1481274135148264,0,-1,2,4,-5,-3,-1,-3
1481274135149180,-1,0,3,12,4,-4,-5,-1
1481274135149180,0,2,2,-3,-26,0,1,1
1481274135164184,0,0,-5,-2,19,1,-4,0
1481274135164184,-1,-2,2,5,-6,0,0,0
1481274135170249,1,-1,-4,-10,-20,0,0,0
1481274135170249,0,-2,0,-1,13,-1,1,0
1481274135185194,1,1,-1,6,-8,0,0,-2
1481274135185194,-1,-1,0,-4,-24,-3,-2,-1
1481274135192695,-2,-3,-8,-8,17,-1,-2,-1
1481274135192695,-3,-2,-4,-5,-4,1,2,0
1481274135216147,-1,-2,0,6,7,1,-1,0
1481274135216147,1,1,-1,-1,11,2,1,-1
1481274135217144,-1,-1,-1,8,-17,-2,5,0
1481274135217144,0,0,2,-12,-16,-3,-1,-1
1481274135224144,-1,0,1,11,-26,-4,-4,0
1481274135224144,-3,-2,-6,-8,28,-1,-1,-2
1481274135230142,-1,0,-1,-4,-23,-5,-4,-2
1481274135230142,0,0,2,4,11,4,2,-1
1481274135245186,-1,-1,-1,-8,-26,-3,0,0
1481274135245186,-1,-1,0,0,1,4,1,0
1481274135252153,-1,-2,0,8,21,0,0,-1
1481274135252153,-1,0,0,1,2,-1,-1,0
1481274135276151,0,0,-4,-14,0,-2,-2,0
1481274135276151,0,-1,-2,3,4,2,4,0
1481274135276151,-2,1,0,-6,27,-1,0,-2
1481274135276151,-3,-4,-3,-2,-28,3,2,1
1481274135284154,0,1,0,3,31,3,1,2
1481274135284154,-2,-1,-1,2,5,-3,-3,0
1481274135290154,1,0,-1,-8,-32,-1,0,-1
1481274135290154,-1,0,0,3,15,-3,-6,-1
1481274135305167,-2,-2,1,7,16,3,5,1
1481274135305167,0,-2,0,-6,-5,-2,-5,-1
1481274135312163,2,-1,-5,-7,-38,-3,-3,0
1481274135312163,-3,-4,-2,4,19,0,2,1
1481274135335228,-3,-3,-1,-6,-18,-1,1,0
1481274135335228,-2,-3,-3,-3,17,1,-1,1
1481274135336164,-2,-2,0,4,30,-2,0,0
1481274135336164,1,2,0,-3,8,-4,-5,-2
1481274135344164,1,1,-1,2,-8,-3,-2,-3
1481274135344164,-1,-1,1,1,-19,0,-1,1
1481274135350165,-1,0,0,-8,-16,-4,-2,2
1481274135350165,-2,0,0,0,-10,4,-1,-1
1481274135365307,-2,-2,-4,-4,8,-1,-3,-2
1481274135365307,-1,1,-1,0,-1,-8,-2,-1
1481274135381169,0,-1,2,5,-19,-3,-3,-1
1481274135381169,2,4,2,1,68,1,-1,-1
1481274135388179,-1,-5,-3,-1,-4,-1,-1,0
1481274135388179,-1,0,0,-9,-14,-2,0,-1
1481274135389179,-3,-3,-3,-5,-13,-1,-2,-2
1481274135389179,1,1,3,1,-26,-3,-1,-2
1481274135403946,1,-2,2,2,11,3,-1,0
1481274135403946,0,-2,-2,0,10,-1,0,0
1481274135409962,0,-1,-2,-3,-9,0,2,0
1481274135409962,-1,1,-1,-2,-2,4,7,0
1481274135425032,-1,0,-2,-8,-16,-4,-1,-2
1481274135425032,1,-1,0,2,31,-1,0,-3
1481274135441021,-1,0,0,1,22,0,-4,-3
1481274135441021,-2,-4,-2,2,24,2,1,0
1481274135447949,-2,2,1,-1,-10,1,0,1
1481274135447949,-1,-1,-4,-5,-11,4,1,0
1481274135448949,0,1,2,7,-9,-1,1,1
1481274135448949,0,0,3,-5,-8,-4,-3,-1
1481274135463948,-1,-2,-6,-6,7,-1,0,-1
1481274135463948,-1,-2,0,8,16,2,-1,0
1481274135470022,-2,-4,-3,-14,-37,-3,1,0
1481274135470022,0,-2,0,8,3,-2,-4,-2
1481274135493460,-1,-1,2,2,7,-3,-1,-1
1481274135493460,0,0,0,-1,-14,2,1,-2
1481274135493960,-3,-1,-2,0,4,2,-3,-2
1481274135493960,-1,-1,0,-1,-32,-9,-4,-1
1481274135508083,-1,-5,-4,-5,20,14,16,1
1481274135508083,1,-1,-1,0,2,-2,-2,0
1481274135509012,-1,0,0,1,3,-3,-1,2
1481274135509012,-1,1,-2,-3,-25,-3,-2,-1
1481274135532013,1,3,3,5,2,-3,-5,-1
1481274135532013,-1,-4,-3,-6,-40,0,1,0
1481274135533014,-1,0,-1,2,39,8,7,1
1481274135533014,-1,0,-2,-1,-1,-3,-2,-2
1481274135553084,1,0,2,0,-18,-5,-6,-3
1481274135553084,-1,5,0,-4,-8,0,0,-1
1481274135554014,-3,-10,-3,-6,-16,-3,-2,-1
1481274135554014,0,-4,-3,1,18,4,-1,-3
1481274135568097,0,0,2,3,1,-6,-3,-2
1481274135568097,-2,-2,-1,-1,-4,3,5,-1
1481274135569015,0,1,2,1,3,-1,-1,0
1481274135569015,0,-1,1,-4,-14,-4,-2,0
1481274135584015,-1,-2,-1,5,27,1,-4,-1
1481274135584015,-2,0,-2,-3,-28,-5,-4,0
1481274135590523,0,2,1,7,61,3,0,1
1481274135590523,0,2,-1,-4,-28,1,-1,1
1481274135606529,4,-2,-4,-4,2,-3,-1,0
1481274135606529,-6,-4,0,2,10,-3,-1,-2
1481274135612531,0,1,-1,-1,18,3,-1,-3
1481274135612531,-2,-4,-1,-2,-4,-3,-3,-1
1481274135627602,0,3,1,-1,0,0,-2,-2
1481274135627602,-1,0,-2,0,4,0,-2,-1
1481274135635531,0,-2,-3,-8,-41,-4,-3,-3
1481274135635531,-1,4,1,8,41,5,1,1
1481274135643603,-2,-1,-2,-3,-14,-3,-7,0
1481274135643603,0,-2,-3,-5,-14,8,14,3
1481274135658604,1,5,0,1,-7,-4,-4,1
1481274135658604,-2,-2,-2,-4,-15,-3,1,-3
1481274135664534,-6,-13,-2,-1,-10,-2,-8,-4
1481274135664534,0,-3,1,1,33,-4,-2,0
1481274135672534,-1,-4,-4,-10,-54,-3,6,-2
1481274135672534,4,3,1,6,37,4,3,0
1481274135687539,0,2,2,-1,-9,-2,-3,1
1481274135687539,0,-3,-2,-3,21,-1,-14,-7
1481274135695040,1,-1,0,1,-14,-1,9,5
1481274135695040,0,-3,0,-5,-15,-11,-14,-3
1481274135704294,-1,0,-1,5,39,8,5,0
1481274135704294,3,3,1,-4,8,-7,-4,1
1481274135718344,-2,-2,-1,5,14,1,-4,-3
1481274135718344,-1,-2,-3,-3,-11,-3,0,3
1481274135725367,-1,2,-2,2,-4,-1,-5,0
1481274135725367,-1,-2,-3,-4,-6,5,11,3
1481274135732298,-1,-1,-2,-2,-8,0,-7,-4
1481274135732298,-2,-4,-1,-1,-6,-5,-3,0
1481274135747296,0,1,0,-1,-15,-2,4,0
1481274135747296,1,1,1,5,32,-4,-4,-3
1481274135755368,-1,-1,-1,2,14,2,-1,-1
1481274135755368,-3,-2,-4,-6,-15,0,4,0
1481274135772296,1,2,2,0,2,-2,2,-2
1481274135772296,-4,-3,-3,-2,-22,-2,-3,0
1481274135773299,-3,-1,0,-7,-19,-2,-8,-6
1481274135773299,3,2,1,10,49,5,14,9
1481274135785306,-4,-3,-1,-6,-24,-4,1,-3
1481274135785306,-2,0,1,2,7,-1,0,0
1481274135792806,0,-2,-3,-5,-16,1,5,0
1481274135792806,-2,0,1,-1,-30,-3,-3,-3
1481274135807814,1,0,-3,2,28,5,1,1
1481274135807814,0,2,-1,-4,-52,-2,-2,1
1481274135814820,-1,-4,-1,2,20,0,-2,1
1481274135814820,-1,0,-2,-5,-18,-1,-4,-2
1481274135831815,-1,-2,-2,-4,4,-2,1,-1
1481274135831815,1,0,2,1,-17,-3,-3,-3
1481274135832814,-1,-1,-1,2,-10,-3,-4,-4
1481274135832814,1,-3,-1,-3,-20,-2,1,-1
1481274135844886,-1,-3,-1,1,20,3,3,0
1481274135844886,-1,0,-3,-2,2,-3,-1,-3
1481274135852861,-2,0,0,-4,-7,-3,-2,0
1481274135852861,-3,-3,0,0,-4,-1,-3,-3
1481274135867817,2,3,0,-4,-53,-3,-2,1
1481274135867817,-2,-5,1,2,41,1,-1,-1
1481274135882817,-2,-3,-1,4,15,0,0,0
1481274135882817,-1,-2,0,1,15,1,-3,-2
1481274135890823,-1,2,2,-2,-18,0,0,-2
1481274135890823,1,-1,0,1,18,0,-1,1
1481274135891322,-1,-1,-2,-2,-10,-3,-2,0
1481274135891322,-2,-2,-4,-2,-10,2,1,3
1481274135904901,0,0,-1,1,22,-4,-3,-1
1481274135904901,1,3,0,-3,-24,-4,1,0
1481274135912853,2,-2,0,4,13,-1,-2,-3
1481274135912853,-1,-3,-4,-4,10,-2,-1,-4
1481274135935902,-2,-2,-4,-6,-20,-3,-1,-2
1481274135935902,-1,-1,-2,1,-15,-4,-3,-2
1481274135936831,-1,1,2,2,17,1,-2,1
1481274135936831,0,1,1,1,2,1,-3,-2
1481274135958904,-1,-2,-1,-2,6,-1,-1,2
1481274135958904,0,-1,2,-2,-23,-3,-7,-2
1481274135959832,0,-2,-2,-1,5,-4,3,2
1481274135959832,-2,1,-1,-3,-5,-2,-1,-2
1481274135964908,-2,-2,1,2,-3,0,-4,-1
1481274135964908,1,-1,-2,2,8,0,-3,1
1481274135972844,0,-1,-3,-6,-13,-1,1,1
1481274135972844,0,0,3,0,-4,-1,0,-1
1481274135995841,0,-5,-7,-5,-33,-3,1,-1
1481274135995841,-1,-3,-2,5,60,3,-1,-2
1481274135996840,-1,0,0,-4,-35,-2,-1,1
1481274135996840,-1,0,1,-1,-3,0,1,0
1481274136010674,0,-2,0,1,29,0,2,0
1481274136010674,1,0,1,-2,-20,0,-2,0
1481274136011595,0,-1,-1,-1,3,1,2,1
1481274136011595,-3,-2,-2,-4,-7,-1,-3,-4
1481274136024666,-2,2,0,-1,0,-5,-1,0
1481274136024666,-2,0,-3,1,3,2,2,0
1481274136032596,1,-1,-1,1,12,0,-1,0
1481274136032596,1,-1,-1,1,-6,-1,-2,-1
1481274136048601,-2,0,0,-2,11,0,-1,-3
1481274136048601,-2,-2,-2,-7,-33,-2,1,1
1481274136054667,-2,0,-1,3,34,0,-2,-2
1481274136054667,1,-2,-4,-2,-2,-2,1,2
1481274136070660,-3,-1,-1,0,-16,-2,-2,-3
1481274136070660,1,0,1,-1,8,-2,1,-1
1481274136071600,-1,0,-1,-1,3,0,-1,1
1481274136071600,0,-1,-3,-2,-12,-2,0,0
1481274136085107,1,-1,0,4,7,2,1,2
1481274136085107,-1,-3,-1,-3,-19,-2,-1,0
1481274136092608,-1,1,0,-1,1,-1,-1,-1
1481274136092608,-2,-3,-1,-2,8,-1,-3,-1
1481274136108740,0,-1,1,-2,-19,-6,-6,-1
1481274136108740,-3,-1,0,3,20,1,-2,-1
1481274136114744,-1,-2,-2,-7,-49,-3,-3,-3
1481274136114744,-1,1,-1,3,77,4,-1,-3
1481274136138853,-2,0,-3,-5,-8,-4,-2,-1
1481274136138853,0,-2,0,1,8,-1,-1,-1
1481274136139740,-2,-1,0,1,7,1,0,-3
1481274136139740,-1,0,0,-8,-42,-5,-2,1
1481274136144811,0,0,0,3,29,2,0,-1
1481274136144811,-1,1,1,3,16,-1,0,0
1481274136160812,-1,-3,-1,-4,-7,-3,-1,0
1481274136160812,2,-2,2,3,-6,1,1,0
1481274136167743,0,-1,-1,0,9,0,0,0
1481274136167743,-2,-2,-4,-3,-21,-1,-1,-1
1481274136174743,-1,-2,-1,-1,10,0,-2,-1
1481274136174743,-1,1,-2,-5,-27,-7,-6,-1
1481274136190751,1,-2,-1,0,-12,-2,1,-2
1481274136190751,-1,-1,-2,-4,-14,-2,1,1
1481274136191751,0,-1,0,2,-34,-2,0,0
1481274136191751,0,-2,0,-2,38,4,2,-2
1481274136213259,-3,-1,-1,-1,0,0,-1,0
1481274136213259,-1,0,-2,0,-4,-1,-3,-1
1481274136214261,-1,-1,-3,-2,-14,-3,-1,1
1481274136214261,0,-1,-1,1,-25,-1,-1,0
1481274136227332,1,0,0,-2,9,2,2,1
1481274136227332,-2,-2,0,-3,3,2,3,0
1481274136235343,0,0,-2,0,11,-2,-2,-1
1481274136235343,-1,-3,0,1,-7,-1,2,0
1481274136252261,-1,-3,-1,3,19,-1,-2,-2
1481274136252261,1,0,-1,-6,-11,-2,-3,1
1481274136253263,0,0,1,3,20,2,-3,-2
1481274136253263,-3,-1,-4,-4,-4,-2,-2,-1
1481274136265266,-2,-3,-3,-5,-34,-7,-2,-3
1481274136265266,0,-1,1,0,37,4,0,0
1481274136272334,1,0,-1,-1,-1,-1,-3,0
1481274136272334,0,-1,-1,0,-17,-3,-2,0
1481274136287921,-1,1,-2,3,27,2,-1,1
1481274136287921,-1,-1,-3,-2,-23,-5,-1,-2
1481274136295421,-2,0,-1,0,31,4,2,-2
1481274136295421,-1,-2,0,0,18,-1,7,1
1481274136311945,0,1,1,0,-25,0,-4,-2
1481274136311945,-1,-3,-1,1,-4,-4,1,0
1481274136312945,1,1,1,0,-2,2,1,-1
1481274136312945,0,0,-2,-1,-7,-2,-4,-1
1481274136326016,-1,0,1,2,19,7,4,0
1481274136326016,0,1,0,-8,-40,-2,-1,-2
1481274136331948,-1,0,-1,-1,42,-1,-1,-1
1481274136331948,-2,-3,-2,1,-4,2,1,-2
1481274136347950,0,-2,-1,-2,-5,-2,-1,2
1481274136347950,-2,1,-1,-1,2,1,0,-1
1481274136355044,-4,-3,-2,0,-12,-1,0,-1
1481274136355044,1,1,1,0,1,-1,-7,-2
1481274136370947,-1,-1,-1,-1,6,-2,0,0
1481274136370947,0,-1,-2,-2,-17,-2,-2,0
1481274136370947,0,0,-1,2,-7,-1,0,1
1481274136370947,-1,0,0,1,-2,-3,-2,-1
1481274136386454,1,-1,1,-6,-4,-5,-2,1
1481274136386454,0,-1,1,2,38,9,1,1
1481274136392454,0,-3,0,-2,-8,-3,0,0
1481274136392454,-2,-2,-1,1,1,3,0,-1
1481274136407534,0,-1,-1,-2,-19,-6,-1,-2
1481274136407534,1,0,-1,1,3,-4,-3,-1
1481274136415469,0,0,-2,0,3,-1,-3,-2
1481274136415469,0,0,0,0,-4,-1,-1,0
1481274136438535,-2,0,0,-2,3,-1,-1,1
1481274136438535,-3,-2,0,0,9,-2,1,-3
1481274136439466,0,0,-1,-4,-11,-3,0,0
1481274136439466,-1,0,-1,-2,-27,-1,0,1
1481274136444538,0,-1,0,3,16,1,-1,-3
1481274136444538,-1,-1,0,0,-28,-2,-1,1
1481274136452537,-1,-2,0,-2,27,-2,-2,-3
1481274136452537,0,1,1,-1,-2,-2,-5,-2
1481274136467466,-2,0,0,0,-1,-8,-4,1
1481274136467466,0,-1,2,1,-14,-3,-1,-3
1481274136475467,-1,0,0,2,-7,-2,-2,0
1481274136475467,0,0,-1,1,20,-1,-3,-1
1481274136492545,-1,-2,-2,-3,-16,1,-2,-1
1481274136492545,-2,0,-1,-1,3,-10,-9,-3
1481274136493046,0,2,1,0,1,0,3,2
1481274136493046,-1,-1,-2,2,44,3,-1,0
1481274136505301,-2,-3,-2,-1,13,3,4,0
1481274136505301,1,-1,-2,-2,-6,0,3,1
1481274136512233,-1,-2,-2,-1,-15,1,6,1
1481274136512233,0,-2,1,-2,-10,-2,0,-4
1481274136527305,0,-1,-1,-3,-9,0,-1,4
1481274136527305,-1,-2,-1,0,13,-3,-5,1
1481274136535233,-1,-1,-2,0,-5,-6,-5,-1
1481274136535233,-1,0,2,1,3,-1,-2,-1
1481274136551235,-2,0,-2,-2,-11,5,9,-3
1481274136551235,-3,-3,-3,-4,6,1,0,0
1481274136557304,-3,0,0,-2,-30,-6,0,-2
1481274136557304,-1,-1,-1,1,-4,-1,1,-2
1481274136566234,1,-2,-1,-1,11,3,2,1
1481274136566234,-1,-1,-2,-2,1,0,6,-1
1481274136572306,0,-2,0,-2,-2,-1,-2,-1
1481274136572306,-1,-1,-3,-2,-2,-2,-1,1
1481274136587743,-1,0,1,-1,-20,4,1,-1
1481274136587743,0,0,-4,-1,-9,-3,-2,0
1481274136603422,1,0,-1,2,41,-2,-12,-2
1481274136603422,-5,-3,-3,-4,-11,-1,7,1
1481274136610399,-1,-2,-2,2,13,3,3,-1
1481274136610399,-1,-2,-1,-2,2,0,-1,-2
1481274136617353,-1,0,0,-4,-30,-4,-3,-1
1481274136617353,0,1,1,5,37,2,-2,-2
1481274136626354,-1,-3,-5,-3,13,-2,-2,-2
1481274136626354,0,0,1,-2,-9,1,1,1
1481274136632354,0,1,-2,1,-8,2,3,-1
1481274136632354,0,-1,-1,-4,-23,-1,0,1
1481274136647355,0,2,0,-1,12,-4,-6,-4
1481274136647355,-2,-1,0,2,16,-1,-8,-2
1481274136663426,-1,-3,-1,-3,-14,-1,3,-1
1481274136663426,0,1,-1,0,-6,-1,-1,-1
1481274136670394,0,1,0,-1,-3,-6,-3,-1
1481274136670394,-1,-3,-5,-5,-6,2,7,1
1481274136677357,-2,-3,-2,0,-12,5,3,-1
1481274136677357,0,-2,0,-2,-17,-3,0,0
1481274136686436,1,1,1,1,-5,-6,-5,0
1481274136686436,0,1,-1,1,5,1,-1,0
1481274136692437,-1,-2,-2,-1,-3,1,-1,-3
1481274136692437,-3,-4,-3,-5,-3,2,4,-1
1481274136715502,0,-2,-1,0,-1,-13,-12,-3
1481274136715502,1,2,2,2,-13,-3,-3,-1
1481274136716501,0,2,1,5,25,0,0,-3
1481274136716501,-2,-3,-2,-3,-9,1,5,-1
1481274136729503,-2,-2,-2,0,0,-1,2,1
1481274136729503,-2,-2,0,3,-4,-2,-3,-1
1481274136737575,-2,0,0,0,0,-2,-2,1
1481274136737575,0,2,1,0,4,-2,-6,-1
1481274136754503,-1,0,-2,-3,-34,0,1,-1
1481274136754503,-1,2,1,1,14,1,0,-3
1481274136755504,-1,-1,1,-3,-11,-2,0,0
1481274136755504,0,0,2,4,20,1,4,0
1481274136769510,-3,-3,-1,1,-1,3,1,-2
1481274136769510,0,0,-1,0,-7,-3,-1,-2
1481274136775508,-1,0,-3,-3,-5,-5,-1,0
1481274136775508,1,-1,-1,-3,-12,2,5,1
1481274136790023,0,1,0,0,5,0,-3,-2
1481274136790023,-3,-2,0,-1,7,8,12,0
1481274136797523,0,-1,-2,-2,7,0,0,-1
1481274136797523,-2,1,-1,-1,-4,-4,-3,-2
1481274136813582,-1,1,-1,1,5,2,2,1
1481274136813582,-1,-2,0,-4,-19,-5,-4,0
1481274136813582,-2,0,-2,1,38,3,0,0
1481274136813582,0,-2,-1,1,-4,-2,-5,-1
1481274136828576,-2,-4,1,-3,0,5,2,0
1481274136828576,1,0,-1,3,-2,-6,-4,0
1481274136843592,1,-1,2,-1,-18,1,2,-1
1481274136843592,0,1,-1,4,-15,1,-1,-2
1481274136849575,-2,-3,-4,9,39,-3,-5,-1
1481274136849575,2,1,2,-23,-14,-2,-4,0
1481274136857645,-2,1,2,8,53,1,1,0
1481274136857645,-1,1,-6,-9,-8,-2,-2,-2
1481274136881578,0,1,1,1,-24,-3,-4,-4
1481274136881578,-1,-1,-1,8,17,2,4,0
1481274136881578,0,0,-1,-9,-25,-4,-1,1
1481274136881578,0,-2,1,7,3,-3,-5,-1
1481274136896175,0,-1,-2,-3,-7,-1,-1,-3
1481274136896175,-1,-1,-3,0,-15,-2,-4,-2
1481274136896673,-2,-2,1,-2,-5,1,-1,-2
1481274136896673,-2,-4,-3,-3,-4,3,10,0
1481274136909762,0,1,3,-4,-1,-4,2,2
1481274136909762,-3,-1,1,18,-14,0,0,0
1481274136917781,-1,-3,-4,-30,4,4,3,-1
1481274136917781,0,0,0,3,7,2,-8,-1
1481274136941804,-1,-1,1,-1,-6,-4,0,1
1481274136941804,0,-1,-2,1,4,-1,-2,0
1481274136942711,-2,-1,0,12,-12,-2,-2,0
1481274136942711,0,0,-2,-3,8,-4,0,0
1481274136947794,-1,-1,2,-7,-36,0,0,-1
1481274136947794,0,0,5,18,80,-1,-10,-2
1481274136954815,-2,-3,-7,-22,-25,-13,-8,-1
1481274136954815,-1,-1,0,-3,0,-3,-3,0
1481274136969780,2,1,-1,1,-15,2,1,0
1481274136969780,-2,-1,-2,-8,-5,-3,-1,-1
1481274136977712,-2,-3,-3,-6,-21,-3,-1,-1
1481274136977712,-2,3,2,1,-20,0,-3,-1
1481274136995291,1,1,1,-1,16,-7,-13,-3
1481274136995291,-1,-3,-4,-6,-16,3,12,2
1481274137000792,0,1,3,15,2,-1,-3,-3
1481274137000792,-1,-2,-5,-10,4,0,-1,-2
1481274137007290,-1,1,1,8,5,3,0,-1
1481274137007290,1,-2,-2,-13,-5,-1,-4,-3
1481274137015213,0,-1,1,8,-16,1,0,-1
1481274137015213,0,-1,0,-1,0,1,2,0
1481274137030298,-1,-2,-1,-3,11,-1,0,1
1481274137030298,2,-1,2,11,-26,-4,-2,-2
1481274137045283,1,-3,0,6,20,11,10,-1
1481274137045283,0,0,-1,-20,8,-4,-1,0
1481274137053284,0,0,-2,0,12,3,5,0
1481274137053284,-5,-1,-3,-2,-22,-3,-3,0
1481274137054215,2,-1,0,-3,16,-4,-6,0
1481274137054215,-2,-4,-2,6,-14,-1,-3,0
1481274137067214,0,-1,3,3,-2,2,4,0
1481274137067214,1,0,-1,-9,-3,0,-5,-3
1481274137075256,-1,-1,-2,-4,-9,-8,-5,-2
1481274137075256,0,0,3,14,30,4,5,0
1481274137106791,-1,-3,-1,3,17,-1,1,2
1481274137106791,0,-2,-2,-7,-14,-5,-6,-3
1481274137106791,1,0,-1,17,15,0,-4,1
1481274137106791,0,-2,1,-27,-34,-8,-4,-1
1481274137121818,-1,-1,-3,0,-3,-6,-9,-3
1481274137121818,-2,0,-4,-2,22,5,1,-2
1481274137121818,-3,-2,-2,-9,-26,0,7,-1
1481274137121818,-1,0,4,17,10,-3,-4,-2
1481274137127797,0,-2,1,14,18,1,2,0
1481274137127797,0,0,-1,-28,-13,-4,-3,1
1481274137134861,0,1,0,12,18,0,-1,-1
1481274137134861,-2,0,-4,3,13,4,0,-2
1481274137151791,-1,-3,-3,-16,-29,-4,-2,1
1481274137151791,-1,0,1,12,34,2,-1,-1
1481274137157865,-1,-2,-2,-9,-23,0,-2,-2
1481274137157865,0,-1,1,12,31,0,6,3
1481274137172884,-2,-1,-6,-20,-26,-1,-3,-1
1481274137172884,0,0,2,6,-26,-3,3,0
1481274137173791,-1,-2,-4,-6,2,2,1,2
1481274137173791,-2,-1,0,7,14,-1,0,-1
1481274137187868,-1,-1,-2,-14,23,-2,-3,1
1481274137187868,-1,-1,1,7,28,9,6,-1
1481274137195369,1,3,5,4,2,-6,-5,-2
1481274137195369,-1,-3,-1,11,-22,0,-1,0
1481274137210375,0,-1,0,-15,-10,-1,0,-1
1481274137210375,-1,-1,-6,-14,7,-2,0,-2
1481274137217378,-4,-1,0,0,-7,1,-2,-3
1481274137217378,-2,-4,-3,-11,-18,-2,-3,-2
1481274137233375,0,0,1,20,41,-1,-6,-2
1481274137233375,-1,-1,0,1,5,-4,1,2
1481274137234377,-1,0,-2,3,-12,1,0,1
1481274137234377,-1,-1,0,-8,-13,-3,-4,-3
1481274137247378,-2,-1,-2,-2,27,0,6,-1
1481274137247378,-1,-3,0,-1,-35,0,3,2
1481274137255408,0,-1,-6,-7,21,-3,-1,-1
1481274137255408,1,0,0,1,-19,-4,-4,-2
1481274137271379,-1,-2,-2,1,-28,-1,1,1
1481274137271379,0,0,1,2,0,-2,-3,-2
1481274137277450,-3,-1,0,3,2,-2,0,0
1481274137277450,0,-1,0,-2,-17,1,3,1
1481274137293462,-3,-1,1,0,-19,-1,2,0
1481274137293462,-1,0,2,8,3,-4,0,-2
1481274137293962,0,-2,-2,-19,-32,-6,-3,-2
1481274137293962,0,1,0,8,18,-3,-6,-2
1481274137307540,1,-2,3,-8,5,1,0,-2
1481274137307540,-2,-1,-3,6,-14,-4,-5,-1
1481274137315472,-1,0,0,6,4,0,0,-1
1481274137315472,0,0,-3,-9,-1,5,6,1
1481274137330472,1,1,4,23,7,2,-3,-2
1481274137330472,0,-1,-1,-9,-15,-6,-3,-1
1481274137337563,2,-2,-2,-1,30,0,0,1
1481274137337563,0,1,2,8,4,3,-1,-2
1481274137353474,-2,-3,-7,-4,-25,2,-3,2
1481274137353474,-2,-2,1,-13,-6,0,2,-2
1481274137353474,0,-1,-3,0,4,-1,7,0
1481274137353474,0,-1,0,-3,-6,-1,0,1
1481274137367473,0,2,-2,1,-2,-3,1,-2
1481274137367473,-1,-1,-1,5,9,0,-6,-1
1481274137374544,-2,-2,1,-2,9,1,2,0
1481274137374544,-2,-4,-1,-7,-28,-6,-5,-1
1481274137390053,1,-1,-1,4,14,-2,1,-1
1481274137390053,0,-1,-2,-3,33,0,-1,-2
1481274137397555,-3,-1,-8,3,-19,-2,-7,-3
1481274137397555,-2,0,-2,-8,7,2,0,-2
1481274137413149,0,0,-2,2,-13,-2,-1,-2
1481274137413149,-1,-1,1,2,-12,1,3,-1
1481274137414078,0,-1,-1,-12,-1,0,-7,0
1481274137414078,1,0,-1,-2,-1,-1,1,1
1481274137427151,-1,-3,-1,5,-2,-2,-5,-1
1481274137427151,-1,-1,2,1,7,-4,-3,-1
1481274137435078,0,-3,-5,5,18,1,-2,-4
1481274137435078,-2,-2,-1,-10,-3,-1,2,-1
1481274137450080,0,-1,2,3,5,-1,0,-2
1481274137450080,-4,-2,-5,-7,9,1,0,-1
1481274137457152,0,1,5,3,-9,2,2,0
1481274137457152,1,1,0,6,23,2,-2,-2
1481274137474081,0,-1,3,1,-1,-3,-4,-2
1481274137474081,0,0,-4,-11,-23,-5,-3,2
1481274137481091,0,1,7,11,3,1,-1,-1
1481274137481091,0,-1,0,5,38,5,1,1
1481274137487660,-1,0,0,4,35,-3,-2,0
1481274137487660,1,-2,-1,-9,-13,0,3,1
1481274137495162,-2,-4,-1,-3,-23,-1,1,-1
1481274137495162,-2,1,3,-13,18,-3,-7,-3
1481274137511182,-2,-1,-4,-7,-35,4,7,0
1481274137511182,1,0,6,29,1,6,0,0
1481274137517183,-2,2,6,-12,16,0,0,-2
1481274137517183,-2,-2,-9,4,-5,-4,-1,0
1481274137532182,-1,-1,-1,-7,-10,-2,-3,-2
1481274137532182,-3,-1,-4,0,-19,-1,1,0
1481274137549185,-2,-1,3,6,0,2,3,1
1481274137549185,0,-1,1,1,-13,-3,-2,0
1481274137550184,1,-2,0,-4,-51,-5,-4,0
1481274137550184,1,-1,-7,-5,53,5,7,0
1481274137555257,-1,-1,-3,-18,-23,-4,-2,0
1481274137555257,-1,-1,-2,-1,2,-1,2,-1
1481274137570204,-2,0,-2,1,-4,7,4,-1
1481274137570204,0,1,4,6,-21,2,-4,0
1481274137577186,-1,-1,-1,-6,31,-1,1,1
1481274137577186,-2,0,-2,6,-2,-2,-8,-1
1481274137592694,-1,0,0,-9,25,2,3,0
1481274137592694,-1,-1,4,24,-4,-3,-2,-1
1481274137600696,-1,-1,-3,-7,-30,-4,-6,-3
1481274137600696,0,0,0,-1,-4,-3,1,0
1481274137607295,-1,-3,-7,-7,-12,1,7,1
1481274137607295,0,-1,-4,-9,16,-4,-8,-2
1481274137615224,-1,-1,1,10,-9,-4,-3,0
1481274137615224,0,-3,-1,-1,-1,-3,-8,-2
1481274137630306,1,1,-3,-1,27,-4,-2,-1
1481274137630306,-3,0,-3,-10,-33,-1,-1,-1
1481274137637284,-1,0,0,1,-2,-2,0,-1
1481274137637284,-2,-1,-5,-6,-18,2,-2,-3
1481274137661296,0,3,12,13,40,5,0,1
1481274137661296,-4,-5,-14,-37,-17,-6,2,-1
1481274137662224,0,0,0,16,2,-3,-3,-2
1481274137662224,-2,-1,1,0,-24,2,9,1
1481274137675331,0,-3,1,4,-23,2,5,0
1481274137675331,0,1,6,1,12,-1,-5,-2
1481274137676226,0,-2,-5,3,-9,0,0,-1
1481274137676226,0,2,0,-10,1,-3,-2,0
1481274137690307,-2,-4,-5,19,-1,-1,-4,1
1481274137690307,1,0,-1,-5,-2,-3,-4,-2
1481274137697807,0,-1,-3,-3,2,4,8,4
1481274137697807,-2,0,3,3,17,-3,-2,0
1481274137714329,0,1,3,4,22,1,-5,-2
1481274137714329,-1,0,1,13,-19,-4,-1,-2
1481274137720415,0,-1,-3,-9,5,4,-3,-2
1481274137720415,-2,0,0,-18,-34,-1,3,-2
1481274137735400,1,0,-2,-9,30,-3,-3,0
1481274137735400,-1,-3,-5,8,-1,-8,-2,1
1481274137736330,-1,1,3,8,-5,2,-2,-1
1481274137736330,-1,-3,-1,13,14,-1,-2,-1
1481274137750332,0,0,-4,-7,-41,-5,-2,-1
1481274137750332,-2,1,1,1,45,1,0,-3
1481274137757401,0,0,-2,2,5,1,0,1
1481274137757401,0,-2,-5,-3,-13,-1,-6,-2
1481274137774332,-1,-3,4,-4,-15,-1,5,0
1481274137774332,0,-2,-3,1,18,4,4,0
1481274137780336,-1,0,4,10,-30,-5,-3,-1
1481274137780336,0,-2,-5,-7,18,5,4,1
1481274137795912,0,0,2,-16,10,-3,-4,-6
1481274137795912,-3,-6,-8,-9,-26,6,8,-2
1481274137796410,-1,-3,-2,-1,23,-4,-8,-5
1481274137796410,-1,1,4,17,-31,-6,-1,0
1481274137810467,-2,0,0,-2,10,-5,-3,-1
1481274137810467,-1,-2,-15,-32,-12,7,5,-1
1481274137817467,-1,-1,-3,-1,-6,-5,-2,-1
1481274137817467,0,-1,-2,-1,-11,-5,1,1
1481274137832469,-3,1,7,17,3,-3,-6,0
1481274137832469,-2,2,7,6,5,-2,-6,-1
1481274137840539,-1,-3,-6,-21,-16,-4,2,0
1481274137840539,1,0,-1,2,60,5,1,2
1481274137855542,-2,-2,-5,3,-21,-1,0,0
1481274137855542,-1,-1,5,-4,-6,-2,0,-1
1481274137856470,-2,-3,-10,-7,5,3,1,-1
1481274137856470,-3,-1,0,-2,-16,-4,-1,-1
1481274137878472,0,1,-2,-5,-1,-3,-7,-1
1481274137878472,-1,2,5,17,-10,0,-4,-1
1481274137878472,0,-1,1,-3,57,0,-5,0
1481274137878472,0,-1,-1,-7,-21,-4,1,2
1481274137892477,0,0,-3,7,-11,0,-1,-2
1481274137892477,0,0,0,-15,15,3,-1,-2
1481274137900479,-1,-1,-1,-6,-40,-2,-2,-1
1481274137900479,0,1,3,7,-3,-3,0,-2
1481274137915949,1,-1,-3,-4,15,0,4,2
1481274137915949,1,-2,-1,-9,-32,-5,-4,1
1481274137915949,1,0,1,4,19,1,1,-1
1481274137915949,-2,-1,2,27,11,2,-1,1
1481274137938050,-3,-3,-14,-50,-27,-4,-2,-2
1481274137938050,1,2,5,20,60,-2,-6,-1
1481274137938950,1,1,6,15,-8,1,4,3
1481274137938950,0,-2,-10,-16,-6,-1,-1,-3
1481274137952021,-2,-2,4,7,-59,4,8,-2
1481274137952021,0,-2,-6,5,82,-1,-2,2
1481274137960035,-3,-2,-4,-5,-16,-2,1,-3
1481274137960035,-1,0,9,33,-1,-1,-5,-1
1481274137976052,1,0,-5,-44,-3,-1,-3,-1
1481274137976052,-1,-2,3,20,-30,3,0,-1
1481274137976052,0,1,8,5,-3,1,2,2
1481274137976052,-1,-3,-2,0,25,1,-2,-3
1481274137991533,0,2,2,14,17,-4,0,0
1481274137991533,0,3,4,6,-22,2,2,2
1481274137997535,-2,-3,-6,-10,13,-3,1,1
1481274137997535,-1,-1,0,-7,-18,-1,-2,-1
1481274138012631,-1,0,-3,4,12,1,0,2
1481274138012631,0,-1,2,11,-11,1,8,-1
1481274138019632,-1,1,-8,-12,-22,-2,-3,-3
1481274138019632,1,0,-1,-9,13,-2,-4,-4
1481274138035645,-2,-3,-1,7,-7,13,11,0
1481274138035645,-2,-2,-2,1,3,-2,-1,1
1481274138036563,-1,-2,-1,10,20,2,0,0
1481274138036563,-1,0,0,-10,10,0,2,-1
1481274138051561,1,-3,-15,-10,-20,-5,-8,-1
1481274138051561,0,-1,0,-10,12,-3,5,1
1481274138057631,-1,0,3,5,1,2,1,-1
1481274138057631,-1,0,-10,1,-6,-11,-9,-1
1481274138072633,-1,1,7,19,33,0,-3,0
1481274138072633,-1,-1,-3,-9,-40,-4,-1,0
1481274138080564,-1,-2,-1,-11,14,0,-2,0
1481274138080564,-3,-1,1,-3,-15,5,8,2
1481274138103752,-1,-1,4,4,-6,0,-4,0
1481274138103752,0,0,-1,0,13,-5,-7,-2
1481274138104682,-1,0,-1,-1,-11,-6,-5,0
1481274138104682,1,1,2,0,1,1,-3,0
1481274138109752,1,-2,0,5,11,-3,4,-1
1481274138109752,-2,-1,0,11,25,5,0,-1
1481274138125727,-1,-1,1,-10,-29,-5,-1,-1
1481274138125727,0,-2,-7,-8,19,1,-3,-2
1481274138132684,0,-1,-2,-3,-7,-5,-6,-2
1481274138132684,0,0,-1,0,-9,-2,-2,-3
1481274138140755,-1,0,1,12,1,0,-1,-1
1481274138140755,-1,0,2,-8,4,-5,-1,-3
1481274138155756,0,0,0,-8,-33,-4,-1,0
1481274138155756,-3,-2,-7,-3,-27,-1,-3,-2
1481274138156685,-1,1,-2,5,40,4,3,0
1481274138156685,-1,-1,5,9,-24,-1,-1,-1
1481274138169801,-1,-2,-7,-18,-10,-3,0,1
1481274138169801,0,-1,0,0,31,-1,-1,0
1481274138177757,-1,-2,-1,8,0,1,-3,0
1481274138177757,-2,-2,0,-14,20,2,-1,1
1481274138192696,0,-1,4,16,10,-2,2,0
1481274138192696,-2,1,-2,-14,-51,4,5,1
1481274138200700,0,-1,-4,5,57,0,0,-2
1481274138200700,-1,0,-2,-2,-17,-1,0,-1
1481274138216205,-2,0,-1,3,9,0,-4,-1
1481274138216205,-1,-2,4,1,-9,-2,-4,-1
1481274138217202,1,2,2,2,-21,-2,-8,-2
1481274138217202,0,-2,1,25,3,5,7,0
1481274138230206,-2,-3,-2,-43,-34,-3,-1,-2
1481274138230206,0,-1,-14,-6,7,-4,0,-1
1481274138237204,0,0,1,-4,-23,-3,-4,-2
1481274138237204,-1,-1,-1,2,55,2,-1,1
1481274138253216,0,-1,3,11,3,0,-3,0
1481274138253216,-3,-2,2,-2,-25,-3,-3,-3
1481274138268205,-1,-1,0,-6,-3,-5,-2,-1
1481274138268205,-2,0,-4,-6,-11,1,-1,-2
1481274138275278,-2,0,-1,15,9,-1,-1,-3
1481274138275278,-1,1,2,-4,8,2,0,-2
1481274138276208,0,1,2,13,-22,-2,4,-1
1481274138276208,0,0,2,-7,-17,-1,0,-1
1481274138290286,-2,-3,-3,-2,-12,6,10,4
1481274138290286,-1,-1,-6,-12,39,-4,-3,0
1481274138297788,-3,-1,1,2,-34,2,0,-1
1481274138297788,-1,-2,-5,-8,-21,-2,2,1
1481274138312889,0,2,-1,-2,16,-2,-5,-4
1481274138312889,-1,-1,1,7,-20,-1,-3,0
1481274138319817,-1,-3,-3,-8,12,2,-1,1
1481274138319817,1,-3,1,14,5,2,0,0
1481274138335890,-2,-3,-2,-1,-1,-2,0,-2
1481274138335890,-1,0,-11,-23,-16,0,0,0
1481274138336819,0,0,0,9,14,-1,-2,-1
1481274138336819,-3,-1,0,-15,-26,-3,-1,-1
1481274138349822,-1,-1,-3,3,26,4,-1,-2
1481274138349822,-1,-1,3,11,13,2,0,-3
1481274138357821,-2,-2,-1,-12,2,-8,-5,-3
1481274138357821,0,1,0,0,4,0,-1,-1
1481274138372867,-1,-2,2,15,24,-1,-3,-2
1481274138372867,-2,-1,-2,-5,-20,-2,-5,0
1481274138379904,-1,-1,-3,-1,-5,0,2,-1
1481274138379904,-1,0,-4,-12,-26,-1,-1,-1
1481274138395913,1,-1,-2,-10,-3,-5,-4,0
1481274138395913,0,0,3,13,-5,0,2,1
1481274138396412,-1,-1,-1,-13,3,3,3,0
1481274138396412,-2,-2,-2,-9,-4,-2,-3,-1
1481274138410004,1,1,0,6,-1,0,1,0
1481274138410004,0,1,7,17,-9,-1,-2,-2
1481274138434006,-2,-1,0,-7,9,-2,2,2
1481274138434006,0,-3,-8,-8,-24,-2,1,-2
1481274138434935,1,0,1,6,61,3,-4,0
1481274138434935,-1,0,1,3,4,-2,0,1
1481274138440006,0,1,1,6,-22,-1,-1,-2
1481274138440006,-1,1,3,7,-10,-1,-4,0
1481274138454964,-2,-2,-4,-2,-8,-1,-1,0
1481274138454964,0,-1,3,13,10,-3,-3,-1
1481274138463008,0,-1,-2,-14,-29,4,1,0
1481274138463008,0,0,-2,6,20,-3,1,0
1481274138470039,-1,0,-7,-19,-14,-3,-3,-1
1481274138470039,1,-2,1,-18,2,-2,0,-1
1481274138477940,-1,-2,-1,5,20,1,-2,-1
1481274138477940,-1,0,-4,-3,5,-2,-2,-1
1481274138494017,0,0,6,14,14,-1,-1,0
1481274138494017,0,-2,-3,-8,-64,-2,3,-1
1481274138508120,-2,0,-4,0,53,0,0,-1
1481274138508120,0,-1,-7,-11,4,4,6,1
1481274138515051,-2,0,1,11,-6,-3,-2,-1
1481274138515051,0,-1,-2,7,-15,-1,0,0
1481274138523120,-1,0,-1,-12,0,1,0,-2
1481274138523120,0,2,3,18,27,2,-2,-2
1481274138530134,-3,-1,-8,-28,-49,-4,0,0
1481274138530134,0,-1,-2,-1,24,1,1,1
1481274138546117,-1,-1,1,11,-6,-3,-2,-1
1481274138546117,0,-2,0,-1,4,-3,-4,-1
1481274138552155,1,1,4,14,-2,-1,-1,-1
1481274138552155,-1,1,-6,-20,3,2,-1,-1
1481274138560134,0,-1,-2,4,-24,0,2,0
1481274138560134,-1,-2,-2,-8,17,1,1,0
1481274138575124,-1,0,4,11,-20,-4,2,1
1481274138575124,-1,-2,-2,-12,16,-1,-3,-2
1481274138583054,0,0,-4,-2,-25,-3,-2,0
1481274138583054,0,-2,2,-3,-14,-4,-3,-1
1481274138590134,0,0,2,20,22,7,4,1
1481274138590134,-1,1,6,1,7,-1,-1,-1
1481274138597633,-1,-1,-16,-7,-6,-4,0,-1
1481274138597633,-2,-2,1,-2,-31,-3,-3,-2
1481274138612227,1,-2,3,5,76,2,-1,1
1481274138612227,-2,-4,-1,-1,-2,-1,0,-1
1481274138620216,0,-1,5,0,-3,-1,-1,-1
1481274138620216,-1,-1,-6,-6,-3,-1,-3,-2
1481274138635157,1,0,-2,-3,-11,-1,-6,-1
1481274138635157,0,0,-3,3,-11,-3,-2,1
1481274138643158,0,0,3,5,24,-1,-2,0
1481274138643158,-1,-1,2,0,3,-4,1,0
1481274138658229,1,-1,-2,-14,-32,-1,0,-2
1481274138658229,-1,-1,1,9,58,5,0,0
1481274138659157,-1,-3,-2,14,-8,1,-2,-2
1481274138659157,-1,-2,-7,-13,-17,-1,-4,-3
1481274138672160,0,-1,-1,-9,-21,-1,0,-2
1481274138672160,-1,-1,-6,-8,4,-4,-1,-4
1481274138680160,0,1,5,9,13,6,3,-1
1481274138680160,0,3,8,4,7,-1,-1,0
1481274138697257,-2,-4,-6,1,-8,4,6,-2
1481274138697257,-1,-1,4,5,-22,-5,1,-1
1481274138710359,-3,-3,0,-13,2,-2,-2,-2
1481274138710359,0,0,2,11,-6,-1,0,-1
1481274138718378,-3,1,-1,0,-7,0,0,2
1481274138718378,-1,0,2,7,4,0,1,-2
1481274138719295,-2,-1,-3,-12,5,-2,-2,-2
1481274138719295,0,0,-4,2,-12,6,12,2
1481274138732294,-1,0,-2,-7,-1,-3,-1,0
1481274138732294,1,0,-1,1,2,1,-2,0
1481274138740364,-1,1,3,4,0,1,-1,1
1481274138740364,-3,-2,0,-6,1,-2,-5,-2
1481274138755398,0,1,-2,0,22,-1,-4,-2
1481274138755398,1,-4,-4,-4,-43,-1,-2,-2
1481274138770307,0,-1,-1,-4,-20,-4,-2,-1
1481274138770307,0,-1,-2,-11,56,-2,-3,0
1481274138778366,-1,-2,-3,-3,-25,-1,-1,-1
1481274138778366,-1,-1,-9,-8,2,1,0,0
1481274138779298,-1,-3,-1,-1,-27,-1,2,0
1481274138779298,0,0,2,5,3,-2,-1,-1
1481274138792807,-1,-1,-1,2,0,-1,-1,-1
1481274138792807,1,0,3,7,12,-1,0,-2
1481274138800309,1,1,-2,-12,-42,-2,-2,1
1481274138800309,0,-2,-1,1,46,4,2,-2
1481274138823816,-1,0,3,-1,-6,-6,-3,0
1481274138823816,-2,1,4,7,3,0,-6,-2
1481274138824816,0,-2,-2,2,-10,0,6,1
1481274138824816,-1,0,-2,-3,-15,0,-1,-2
1481274138837816,0,-4,0,2,-3,-4,-2,-2
1481274138837816,0,0,-7,-16,-1,-4,-2,-1
1481274138838817,-1,-2,0,9,7,1,-1,1
1481274138838817,0,0,0,-8,-25,-3,-4,-2
1481274138852817,-1,-2,0,9,23,6,1,-1
1481274138852817,-1,-3,0,0,-25,0,0,2
1481274138859832,-1,0,-1,-2,6,1,-2,-3
1481274138859832,-1,-1,0,-8,-5,-1,-1,0
1481274138883819,-1,-1,-2,-9,-19,-4,-1,-1
1481274138883819,1,0,7,23,16,-1,0,-1
1481274138884819,0,0,-10,-26,7,-3,-3,-1
1481274138884819,1,-1,3,15,-9,-2,-4,0
1481274138898333,0,2,6,14,11,1,1,1
1481274138898333,-2,-1,-7,-22,36,0,-2,-2
1481274138899330,-2,-1,3,7,-30,-4,0,0
1481274138899330,0,1,0,8,28,-4,2,-1
1481274138912846,-1,-2,-3,-6,15,4,2,-1
1481274138912846,-2,-3,0,8,3,0,2,-1
1481274138919910,0,-1,-3,-7,3,-2,-3,-2
1481274138919910,-2,-1,-3,2,-7,-1,-2,1
1481274138934842,-1,-2,-3,-8,0,-2,-1,-3
1481274138934842,1,0,2,2,10,0,1,0
1481274138942959,1,0,-2,-19,7,-2,-3,0
1481274138942959,-2,-2,2,12,-10,-1,-4,-1
1481274138957844,-3,-3,-4,-18,2,-5,-4,0
1481274138957844,0,0,0,-3,-53,-4,-1,-1
1481274138958846,-1,-1,4,6,47,-2,-7,-2
1481274138958846,1,-3,-9,11,16,2,2,0
1481274138972846,-1,-3,-10,-30,-22,-1,-3,-2
1481274138972846,0,0,1,9,-3,4,0,-3
1481274138988362,1,1,5,16,29,-1,0,-3
1481274138988362,0,-1,6,2,-30,-1,1,1
1481274138995352,0,2,-7,4,15,-2,1,0
1481274138995352,-3,0,-2,-6,-10,1,1,2
1481274139002355,1,0,-1,3,-7,2,1,0
1481274139002355,-1,0,-1,-7,-3,1,1,-2
1481274139017814,-1,-4,1,4,-29,-1,1,1
1481274139017814,-3,0,1,17,49,0,-3,-1
1481274139018812,0,-2,-4,-18,-34,-2,-2,1
1481274139018812,-1,-2,-2,-6,-32,-4,-3,0
1481274139032815,-2,0,-17,-25,18,-1,-3,-2
1481274139032815,1,0,2,6,-29,-4,-1,-1
1481274139047815,-3,-2,-2,0,41,2,1,-3
1481274139047815,1,2,1,6,-30,-3,-1,0
1481274139054876,-1,0,4,-1,-20,-1,-3,0
1481274139054876,0,1,-2,-4,11,0,-2,2
1481274139062816,-1,-1,-1,3,-31,-1,-1,-2
1481274139062816,0,0,0,-4,24,-3,0,0
1481274139078818,0,-1,6,20,4,4,5,0
1481274139078818,0,-3,-6,-23,37,3,1,0
1481274139085815,0,-1,3,9,-20,-1,0,0
1481274139085815,-1,-1,-5,-13,14,-4,-1,-1
1481274139092822,-2,-1,-2,12,-4,-2,-3,-2
1481274139092822,0,-1,3,12,-10,-1,-1,-3
1481274139100322,-1,-1,-1,-7,-1,-1,0,-1
1481274139100322,-1,-1,-2,-5,5,5,-1,-2
1481274139114685,-1,0,4,7,-19,-2,-4,-1
1481274139114685,0,-3,-2,-22,-12,-1,0,-1
1481274139123695,0,1,1,10,2,0,-2,-1
1481274139123695,-1,-2,-9,-5,-1,1,1,0
1481274139137759,1,-1,-1,-7,10,2,1,0
1481274139137759,-1,-2,-1,1,-35,0,0,1
1481274139138686,0,-1,1,13,-8,-3,-3,0
1481274139138686,1,-2,-3,-17,49,2,-1,0
1481274139160758,0,-2,-1,-9,-9,-1,-1,-1
1481274139160758,0,1,-2,0,-4,-5,0,1
1481274139161705,0,0,-2,0,7,4,2,1
1481274139161705,-3,-3,-2,-1,-12,0,-2,-2
1481274139174688,-2,1,0,8,-26,-4,-2,-2
1481274139174688,-1,-1,1,10,18,0,-1,-2
1481274139182689,-2,-1,0,-23,8,1,1,-1
1481274139182689,-2,0,0,17,41,1,0,-1
1481274139198696,1,-1,-1,-1,-13,0,-1,-1
1481274139198696,-2,-1,0,-2,11,-5,-2,1
1481274139199196,1,-2,1,16,23,-2,-2,-1
1481274139199196,-1,-1,-3,-9,-36,-3,-3,-1
1481274139213599,-2,0,-1,1,-5,-1,0,-1
1481274139213599,1,1,-2,-7,23,2,1,0
1481274139219599,-1,-2,-2,-2,-33,-6,-4,0
1481274139219599,-1,-2,-5,-5,-12,0,0,0
1481274139234597,0,0,7,8,26,-2,0,0
1481274139234597,-2,-3,-6,-9,-30,-2,-3,0
1481274139243600,0,2,3,18,9,0,-2,0
1481274139243600,-1,-2,-4,-18,-14,0,-3,-2
1481274139266601,-2,-1,0,12,-12,1,-1,0
1481274139266601,-2,-4,-2,5,23,-1,-3,-3
1481274139267602,-1,-3,-5,-13,-39,-6,-1,-2
1481274139267602,-1,1,3,11,52,2,2,-1
1481274139272600,0,1,-1,4,41,0,0,1
1481274139272600,0,2,6,5,-33,-1,-3,-1
1481274139288198,-1,-2,-7,5,2,2,0,0
1481274139288198,-2,-2,1,-27,-42,-4,-3,0
1481274139295199,-1,-2,0,-1,2,-1,-3,0
1481274139295199,0,0,1,10,13,1,3,1
1481274139303708,-1,-1,-2,2,8,-1,0,-1
1481274139303708,0,-1,0,3,-13,-4,1,0
1481274139326769,0,-1,-3,-5,6,2,0,0
1481274139326769,-1,-1,-5,-11,-66,-2,-2,0
1481274139326769,0,0,1,4,64,2,2,-1
1481274139326769,-2,-1,-3,22,-11,-2,-3,-2
1481274139332708,0,-4,-9,-45,17,-7,-2,-2
1481274139332708,0,-2,4,7,-13,5,1,-1
1481274139339771,-2,-1,-4,-11,-11,0,-2,-1
1481274139339771,-1,0,4,12,3,-2,-1,0
1481274139354709,-2,-2,3,15,-8,-2,-4,-3
1481274139354709,0,0,-2,-7,2,-2,0,0
1481274139362710,-2,-2,-1,0,0,-1,0,1
1481274139362710,1,-2,0,-11,-2,1,0,-1
1481274139377774,1,0,1,7,-22,-1,-3,-1
1481274139377774,-1,-1,-2,-7,22,-2,-3,-1
1481274139385774,-3,-2,1,1,-22,1,1,-1
1481274139385774,-1,0,-2,3,-12,-1,-2,-3
1481274139392719,0,-1,-5,2,8,2,3,1
1481274139392719,-1,0,-2,13,-15,-2,1,0
1481274139400221,1,-1,-1,-5,10,-1,-2,1
1481274139400221,-3,-2,-5,-46,-18,-4,-2,1
1481274139424260,0,0,-8,2,8,0,-3,-2
1481274139424260,-2,0,4,2,2,-1,-3,-1
1481274139425257,1,0,2,11,-5,0,-1,-1
1481274139425257,0,-1,-2,-5,-7,1,0,-2
1481274139439259,0,-1,5,19,-13,-3,-1,-1
1481274139439259,-1,-3,-9,-21,7,-2,-1,-2
1481274139445261,-1,0,-1,-4,-19,-2,-2,0
1481274139445261,1,2,7,26,50,3,1,-1
1481274139452269,0,2,-3,-23,-14,-2,-1,-1
1481274139452269,1,1,1,8,31,2,0,-1
1481274139460331,-2,0,5,5,-14,-2,0,-3
1481274139460331,-2,-2,-9,-14,16,1,-2,-2
1481274139475332,-1,0,5,6,-6,-1,1,-1
1481274139475332,-1,0,0,-1,24,3,-1,-2
1481274139490847,1,0,-2,0,-20,-4,-2,-3
1481274139490847,1,3,7,10,-18,-1,0,0
1481274139497848,-2,0,0,4,17,3,0,1
1481274139497848,-1,-2,-2,-11,0,0,1,2
1481274139505477,-2,-1,-6,-9,11,0,1,0
1481274139505477,-1,0,3,19,-30,-3,-1,0
1481274139512407,1,-3,-1,-22,-6,-1,1,-1
1481274139512407,1,0,3,18,18,1,1,0
1481274139520408,-1,-3,-19,-27,18,0,-3,-2
1481274139520408,0,0,7,14,-12,0,1,-1
1481274139543478,-3,1,4,15,-9,-3,1,0
1481274139543478,-3,-3,-9,-34,-19,-4,-3,-1
1481274139544410,0,-2,2,-1,-3,-2,0,-1
1481274139544410,-1,-1,-2,4,11,0,0,1
1481274139557482,1,0,1,8,-2,-4,1,0
1481274139557482,1,-1,-1,-4,-46,-6,-2,-1
1481274139565412,-1,0,2,-2,36,4,1,0
1481274139565412,0,-2,-3,-3,-40,-2,0,0
1481274139580457,-1,-1,4,9,45,0,-3,-1
1481274139580457,-1,-1,-6,-3,-4,-2,-2,-2
1481274139581411,0,1,4,3,5,0,0,-1
1481274139581411,-1,-5,-1,1,-23,-1,-1,-1
1481274139594991,0,-1,-2,-8,-11,0,0,-1
1481274139594991,0,1,1,15,12,1,2,1
1481274139603723,-2,-3,1,1,-16,-4,-1,-2
1481274139603723,-1,-1,-8,-23,19,0,1,-1
1481274139617709,-1,0,-4,-1,-8,-1,-1,0
1481274139617709,-4,-3,2,10,-30,-2,-3,-3
1481274139625757,0,0,-4,-5,7,-3,-2,0
1481274139625757,-1,1,2,9,50,2,0,0
1481274139640784,-3,-1,3,-6,-11,1,-6,-3
1481274139640784,2,-1,-4,3,-7,1,0,0
1481274139641711,-3,-3,-1,-16,-15,-1,-2,1
1481274139641711,1,0,-2,-2,-19,-8,-2,0
1481274139654783,0,2,0,5,14,2,-4,-2
1481274139654783,0,0,3,-2,12,-1,1,-1
1481274139663759,-1,1,2,9,0,1,1,-1
1481274139663759,-4,-3,1,3,-16,-3,0,-1
1481274139677784,1,-2,-2,-1,6,4,2,-1
1481274139677784,-1,-2,-2,-14,-27,-2,-3,0
1481274139685715,2,-1,-1,2,-37,0,-2,-2
1481274139685715,-3,-3,-5,-8,34,0,-3,-1
1481274139700722,-2,-2,-2,6,5,-2,0,1
1481274139700722,-1,1,0,-2,3,1,2,0
1481274139701766,-2,-1,3,17,-45,-5,-2,-1
1481274139701766,1,0,-2,-2,26,0,-3,0
1481274139716234,1,-4,-9,-16,-8,-1,0,-1
1481274139716234,-2,-1,1,2,18,0,-4,-2
1481274139723303,0,-1,2,8,14,3,-1,1
1481274139723303,-2,-2,-4,5,-16,-2,2,0
1481274139737301,0,0,-6,-22,-35,-2,-4,-3
1481274139737301,-1,0,-1,1,17,0,1,-1
1481274139746267,-1,0,-2,-5,-18,0,-1,-1
1481274139746267,0,2,0,9,42,4,0,0
1481274139760302,0,0,7,2,-24,-4,1,0
1481274139760302,-1,-4,-13,-25,1,-2,-2,1
1481274139761231,-4,-2,-8,-4,-12,-2,-1,-2
1481274139761231,1,-1,2,4,-29,-1,0,-1
1481274139775303,-1,-3,-4,-7,-12,-4,0,1
1481274139775303,0,2,7,8,25,2,3,-2
1481274139783233,-1,-2,-2,-5,15,-1,-1,-1
1481274139783233,-2,0,0,0,-18,-2,-2,-2
1481274139797817,-2,-1,-1,-2,4,1,0,-3
1481274139797817,0,-1,1,5,-32,-4,-2,0
1481274139814030,-1,0,-5,-6,29,2,0,1
1481274139814030,0,0,4,-8,-2,-2,1,-2
1481274139822032,-2,1,-1,10,9,4,-1,-1
1481274139822032,-1,0,2,7,26,-3,-1,1
1481274139823031,0,-2,3,20,-12,-2,0,1
1481274139823031,-1,-4,-11,-29,-28,0,1,-1
1481274139835033,-1,-1,-4,-7,-5,-2,-1,1
1481274139835033,1,-2,-2,4,10,-1,0,-2
1481274139843103,-1,1,7,2,-14,0,0,-1
1481274139843103,-1,0,2,18,43,0,0,-1
1481274139858035,-1,-2,-1,0,-10,0,2,-2
1481274139858035,-1,-2,-4,-6,4,0,-2,-1
1481274139866044,-1,-1,2,-3,4,-3,-2,-2
1481274139866044,0,0,3,-1,-30,1,0,1
1481274139881035,0,0,3,4,37,1,1,-1
1481274139881035,-1,0,3,0,10,2,0,-1
1481274139882035,-2,0,-3,5,8,0,-1,-4
1481274139882035,-1,-1,1,-8,-27,-2,-3,0
1481274139896546,-1,-2,0,8,21,0,-1,1
1481274139896546,-2,-3,-8,-16,8,-1,1,0
