timestamp,x,y,z
1481274127010932,-1.75,0.3125,-1.1875
1481274127027441,-1.75,0.4375,-1.3125
1481274127055440,-0.25,1.1875,-1.375
1481274127070445,1.1875,1.5,-1.0625
1481274127086444,0.3125,1.375,-1.5
1481274127115456,-1.5,1.3125,-2
1481274127130533,-0.125,1.1875,-2.125
1481274127146458,2.3125,1.5625,-1.4375
1481274127169461,2.375,2.0625,-1
1481274127191496,-1.625,1.9375,-1.625
1481274127207470,-3.25,1.8125,-2.25
1481274127229476,-0.875,1.5625,-2.0625
1481274127250547,1.1875,2.125,-2
1481274127266477,2,1.4375,-2.3125
1481274127289478,1.125,0.75,-2.4375
1481274127310989,-0.1875,0.125,-2.375
1481274127334495,1.0625,0.125,-1.8125
1481274127349495,2.125,0.25,-1.625
1481274127370569,1.5625,-0.3125,-1.4375
1481274127394500,0.5625,-0.75,-1.125
1481274127433068,0.75,-0.875,-0.5625
1481274127435068,0.5,-1.1875,0
1481274127448068,-0.9375,-1.375,0.375
1481274127469070,-2,-1.5,0.625
1481274127490071,-1.875,-1.125,0.3125
1481274127506658,0.1875,-1.0625,0.625
1481274127529666,1.625,-0.625,0.6875
1481274127557668,0.0625,-0.5,0.6875
1481274127566669,-1.5625,-0.125,0.6875
1481274127589668,-0.625,0.4375,0.625
1481274127610756,0.8125,0.5625,0.25
1481274127626763,-1.0625,0.6875,0.25
1481274127649766,0.125,1.4375,0.625
1481274127670766,1.125,2.0625,1.0625
1481274127686767,-0.125,1.9375,0.625
1481274127709784,-2.875,2.3125,0.625
1481274127730792,-2.1875,1.1875,0.75
1481274127746793,-0.0625,0.9375,0.625
1481274127769793,0.3125,1.1875,0.5
1481274127790800,-0.4375,1.25,0.375
1481274127806381,-2.125,1.25,0.25
1481274127836890,-2.125,1.0625,0.625
1481274127850891,2.0625,0.25,0.9375
1481274127865963,5.25,0.8125,1.125
1481274127889890,3.125,0.9375,0.375
1481274127910973,0.6875,1.625,0
1481274127926642,-0.0625,1.6875,0.3125
1481274127949648,-2.1875,1.875,1
1481274127970651,-2,1.75,0.875
1481274127986648,-1.375,2.0625,1.0625
1481274128009230,0.0625,2.3125,1.5
1481274128030152,-0.3125,2.25,1.6875
1481274128046144,-3.375,2.5625,1.8125
1481274128069145,-5.3125,2.8125,2.4375
1481274128090228,-3.6875,3.1875,2.0625
1481274128114249,-3,4,1.9375
1481274128129244,-2.1875,4.0625,2
1481274128150251,-1.375,4.9375,1.8125
1481274128166247,-2.8125,6.9375,1.3125
1481274128189248,-4.5625,7.125,1.1875
1481274128212254,-3.3125,5.9375,2
1481274128233263,-1.5,5.125,2.5
1481274128249263,-1.1875,4.4375,2.125
1481274128279265,-3.625,3.875,1.1875
1481274128294268,-3.6875,3.0625,1
1481274128309277,-0.0625,2.9375,0.8125
1481274128339285,2.125,2.4375,0
1481274128353285,-0.8125,1.1875,-1.1875
1481274128369287,2.25,-0.0625,-0.875
1481274128392288,5.875,-0.625,-0.125
1481274128413294,3.875,-0.4375,-0.6875
1481274128429301,0.875,0,-0.6875
1481274128452302,2,-0.4375,-0.3125
1481274128473303,0.0625,-0.125,0.4375
1481274128489305,-5.375,0,0.4375
1481274128512314,-6.6875,0.625,1.875
1481274128533317,-7.9375,1.8125,3
1481274128557320,-8.5625,3.8125,4.125
1481274128572321,-8.375,3.6875,5.3125
1481274128593324,-1.25,2.875,6.8125
1481274128617327,7.375,4.5625,7.375
1481274128632329,8.0625,6.125,7.6875
1481274128653332,12.1875,6.375,8.125
1481274128669334,16.9375,8.9375,9.3125
1481274128692337,12.75,13.625,9.4375
1481274128720840,8.375,16.75,9.1875
1481274128728841,7,18.5,8.625
1481274128752845,1.4375,19.5,8.9375
1481274128780848,-2.125,20.3125,9.0625
1481274128788849,-2.3125,19.75,9.6875
1481274128812352,-0.3125,19.4375,10.875
1481274128834855,-0.375,21.125,11.625
1481274128848857,-8.6875,23.4375,12.3125
1481274128872359,-14.9375,25.1875,13.75
1481274128893362,-15.5,27.1875,15
1481274128908865,-18.5625,29.25,15.25
1481274128931367,-22.5625,29.125,14.125
1481274128953370,-20.75,27.1875,13.0625
1481274128969372,-11.375,24.25,12.5
1481274128991374,-1.6875,24,13.0625
1481274129013378,0.375,23.4375,13.125
1481274129029379,-4.75,23.5,12.6875
1481274129052382,-12,23.4375,11.375
1481274129073385,-13.625,24.0625,12.125
1481274129088887,-13.75,24.9375,13.0625
1481274129111390,-17.5,26.4375,13.3125
1481274129134893,-24.6875,26.625,12.5625
1481274129148895,-25.5625,27.4375,12.125
1481274129171397,-21.1875,29.25,13.375
1481274129194900,-22.25,29.5625,15.125
1481274129208903,-23.3125,29,16.375
1481274129231405,-26.875,29.25,16.125
1481274129254908,-27.5625,29.8125,15.875
1481274129269910,-23.0625,29.875,16.1875
1481274129291413,-20.25,28.9375,18.0625
1481274129314922,-13.5,28.9375,19.25
1481274129336924,-10.1875,30.5625,18.875
1481274129350925,-13.3125,32.125,17.875
1481274129374926,-14.5,32.1875,18
1481274129395941,-13.0625,31.25,17.6875
1481274129410941,-8.5625,31,16.5
1481274129434943,-6.375,32.0625,16.6875
1481274129455955,-12.125,34.1875,20
1481274129470945,-20.5,34.375,22.9375
1481274129494955,-29.125,34.625,22.6875
1481274129522963,-41.8125,35.9375,21.25
1481274129539964,-44.6875,35.4375,21.75
1481274129554964,-30.5,36.875,22.25
1481274129575965,-24.1875,41.375,23.125
1481274129591975,-33.75,43.125,23.5
1481274129613983,-40.875,43.5625,22.8125
1481274129635986,-41.1875,43.75,24.25
1481274129651987,-41.875,45.3125,24.1875
1481274129674987,-42.5625,48,25.0625
1481274129703010,-50.125,52,25.1875
1481274129711004,-60.625,50.75,24.5625
1481274129734003,-55.1875,50.0625,26.375
1481274129756006,-48.5625,52.5625,30.25
1481274129771007,-49.75,54.5625,31.8125
1481274129794516,-49.125,52.8125,31.9375
1481274129816041,-41.125,50.25,32.75
1481274129831027,-33.6875,50.25,34.8125
1481274129855026,-34.375,50,36.3125
1481274129876060,-32.6875,48.9375,38.375
1481274129906063,-26.1875,50.6875,41
1481274129914046,-24.625,54.1875,41.8125
1481274129936052,-31.1875,59.625,40.0625
1481274129951049,-38.875,63.375,42.375
1481274129974049,-33,54.25,40
1481274129996144,-29.375,59.3125,38.5625
1481274130011143,-27.1875,59.75,37.1875
1481274130034140,-22.125,60.8125,37.875
1481274130055143,-23.3125,58.9375,35
1481274130071145,-33.6875,55.8125,34.875
1481274130094154,-33.375,52.5,31.75
1481274130116994,-24.1875,49.8125,31.4375
1481274130137997,-19.0625,48.0625,31.5625
1481274130153996,-22.6875,47.6875,30.25
1481274130183577,-29.1875,48.75,29.375
1481274130191577,-33.3125,48.6875,30.25
1481274130214082,-32.3125,48,30.875
1481274130237083,-29.1875,48.8125,31.625
1481274130252087,-27.3125,50.25,30.6875
1481274130274085,-25.8125,51.3125,29
1481274130297157,-26.875,50.875,27.4375
1481274130312158,-29.6875,52,28.4375
1481274130334159,-39.0625,49.9375,28
1481274130357160,-44.0625,46.9375,27
1481274130378161,-35.375,45.375,26.9375
1481274130394169,-25.125,44.875,26.8125
1481274130422847,-23.3125,44.4375,25.8125
1481274130437848,-30.0625,41.6875,22.4375
1481274130453848,-33.875,33.5,17.6875
1481274130476850,-22.0625,28.0625,16.1875
1481274130497987,-5.625,22.3125,14.25
1481274130521916,3.375,17.3125,12.4375
1481274130536917,1.375,8.8125,8.4375
1481274130557990,-0.75,1.75,4.25
1481274130573919,-0.625,-2.875,1.9375
1481274130597072,7.4375,-4.25,2.375
1481274130618075,11.9375,-1.5,4.875
1481274130634074,3.8125,-4.1875,3.375
1481274130657076,1.75,-7.3125,1.125
1481274130678079,7.375,-4.5,3.875
1481274130694092,1.8125,-1.875,3.8125
1481274130717501,-1.375,-1.5625,0.6875
1481274130738512,5.0625,-2,-0.25
1481274130753506,8.75,-1.5625,0.9375
1481274130777505,3.6875,-2.625,-0.1875
1481274130798289,3,-2.9375,-0.6875
1481274130814220,5.1875,-3,-1.625
1481274130836224,3.6875,-4.1875,-3.25
1481274130866227,4.5,-5.3125,-3.625
1481274130874223,7.125,-5.375,-3.375
1481274130896329,4.625,-3.5,-3.25
1481274130918330,0.5,-1.4375,-3.5
1481274130934330,-0.5,-1.75,-3.5625
1481274130956330,4.0625,-2.5,-2.9375
1481274130979333,5.5,-4.6875,-1.875
1481274130994342,3.9375,-6.6875,-2.875
1481274131016848,4.875,-7.0625,-3.125
1481274131039849,3.4375,-7.25,-2.6875
1481274131053849,0.25,-6.75,-1.875
1481274131076851,0,-4.125,-0.5625
1481274131099865,0.4375,-1.5625,1
1481274131113865,-1.4375,1.1875,0.875
1481274131135879,-3.625,2.0625,0
1481274131159869,-1.5,0.4375,0.75
1481274131173871,1.3125,-1.5,0.6875
1481274131196884,3.1875,-4.3125,-0.375
1481274131219885,4.25,-6.25,-1.1875
1481274131233888,5.25,-6.875,-1.25
1481274131256889,6.125,-6.8125,-0.6875
1481274131279889,3.75,-4.9375,0.625
1481274131293898,2.125,-2.9375,-0.25
1481274131316478,2.9375,-2.0625,0.1875
1481274131339487,3.125,-1.625,0.625
1481274131353479,2.1875,-2.125,-1.0625
1481274131376478,1.8125,-2.5,-2.5
1481274131399509,4.3125,-2.375,-1.8125
1481274131413520,3.0625,-2.625,-1.375
1481274131444513,1.1875,-3.875,-2.0625
1481274131459512,3.25,-4.0625,-1.4375
1481274131473538,1.8125,-3.375,-0.4375
1481274131496592,-1.6875,-3.3125,-0.9375
1481274131519595,0.9375,-3.1875,-0.8125
1481274131540668,4.6875,-2.625,-0.4375
1481274131556599,2.3125,-2.8125,-0.375
1481274131579599,0.8125,-3.5625,-0.5625
1481274131616669,4.3125,-4.3125,-0.3125
1481274131619666,7.625,-4.25,0.6875
1481274131639667,4.375,-4.1875,0.0625
1481274131668701,-0.5625,-4.375,-1.3125
1481274131684755,1.5625,-3.875,-1.625
1481274131699829,6.0625,-2.4375,-0.125
1481274131721829,5.0625,-1.8125,-0.125
1481274131736832,3.4375,-1.8125,-0.0625
1481274131759834,1.3125,-2.3125,0.5625
1481274131782842,-1.5625,-2.375,-0.125
1481274131795843,0.6875,-1.8125,0.8125
1481274131818937,3.5,-2.5,1.9375
1481274131841021,3.9375,-3.1875,2.3125
1481274131856941,1.5625,-3.6875,1.6875
1481274131895455,-1.5,-4.875,0.75
1481274131900464,0.0625,-4.75,0.625
1481274131916465,2.5,-4.6875,0.5625
1481274131947467,3,-4.125,0.4375
1481274131960477,2.0625,-3.8125,-0.75
1481274131976468,1.3125,-4.8125,-1.375
1481274131999147,3.5,-4.3125,-1.1875
1481274132022144,2.6875,-4.375,-1.4375
1481274132036147,0.8125,-5,-2.375
1481274132059141,1.625,-5.4375,-3.25
1481274132082148,4.4375,-5,-2.5625
1481274132096650,3.75,-5.1875,-3.4375
1481274132118658,2.0625,-6.4375,-4.3125
1481274132149660,6.375,-7.375,-4.625
1481274132171685,12.6875,-8.3125,-5.1875
1481274132187252,12.4375,-11.8125,-7.3125
1481274132201764,15.3125,-15.5,-8.3125
1481274132216762,15.875,-16.1875,-7.1875
1481274132238763,6.125,-16.875,-8.25
1481274132261779,5.125,-18.25,-8.25
1481274132283347,18.3125,-19.1875,-7.1875
1481274132298476,23.9375,-21.375,-7
1481274132322392,16.8125,-26.625,-8.6875
1481274132343465,17.5625,-33.625,-11.1875
1481274132367394,32.125,-41,-13.375
1481274132382401,39.125,-40,-10.0625
1481274132403498,25.75,-40.6875,-11.5625
1481274132418427,19.8125,-45.9375,-14.8125
1481274132442426,37,-49.5,-14.5625
1481274132463499,43.4375,-42.1875,-7.4375
1481274132478431,13.9375,-39.3125,-9.9375
1481274132502089,-0.5,-39.4375,-12.4375
1481274132523102,11.1875,-41.125,-12
1481274132539019,27.3125,-44,-13.5
1481274132562021,24.9375,-41.3125,-11.5625
1481274132583528,10.8125,-45.625,-15.375
1481274132607035,12.9375,-49.8125,-17.9375
1481274132622036,24.0625,-51,-18.8125
1481274132643109,28.1875,-55.8125,-20.6875
1481274132667040,31.1875,-60.0625,-21.1875
1481274132682119,32.5,-62.5,-20.25
1481274132702777,29,-65.5,-21.625
1481274132726709,27.75,-68.5625,-24.125
1481274132741706,30.4375,-68.375,-21.625
1481274132762778,30.25,-72.0625,-20.6875
1481274132778710,36.4375,-77.875,-22.375
1481274132801808,48.4375,-81.9375,-21.8125
1481274132830878,48.8125,-83.3125,-18.3125
1481274132838805,39.8125,-84.4375,-18.0625
1481274132861808,36.5,-85.9375,-18.6875
1481274132892388,44.6875,-86.4375,-16
1481274132906911,53,-87.5625,-13.625
1481274132921911,57.25,-87.8125,-11.875
1481274132944912,53.5625,-86.3125,-11.375
1481274132959913,45,-83.0625,-8
1481274132981914,38.9375,-75.6875,-3.8125
1481274133004368,25.8125,-65.3125,-0.6875
1481274133020366,12.1875,-57.375,0.9375
1481274133041368,9.25,-53.6875,1.6875
1481274133064369,3.875,-54.4375,1.25
1481274133078377,3.5,-57.9375,0.25
1481274133100971,7.625,-62.625,0.375
1481274133124973,11.875,-66,0.4375
1481274133138973,11.75,-67.625,0.6875
1481274133160976,14.5625,-70.375,-0.1875
1481274133184554,20.9375,-75.125,-2.4375
1481274133205563,26.125,-78.125,-3.25
1481274133221562,29.6875,-79.25,-3.375
1481274133244564,31.125,-82.5625,-4.5
1481274133265631,39.1875,-87.9375,-7
1481274133281566,47.25,-89,-8.0625
1481274133304178,45.875,-92.5,-8.375
1481274133317177,50.75,-97,-9
1481274133340181,64.75,-93.875,-6.125
1481274133355253,60.8125,-88.5,-2.5
1481274133377252,47.0625,-87.5,-4.25
1481274133400338,49.25,-87.25,-8.75
1481274133415340,56.375,-83.8125,-7.375
1481274133437414,50.375,-75.8125,-3.1875
1481274133460412,41.9375,-69.125,-2.9375
1481274133475344,40.3125,-62.1875,-1.75
1481274133498541,35.25,-54.6875,-1.3125
1481274133520611,20.1875,-49.75,-2.5625
1481274133534542,12.0625,-45.5625,-3.0625
1481274133557663,7.375,-38.875,-1.5625
1481274133580623,2.5,-31.5,-1.375
1481274133595055,1.5625,-24.6875,-2.6875
1481274133617598,2.1875,-17.0625,-1.875
1481274133640599,-5.125,-11.0625,-1.25
1481274133663638,-9.875,-6.9375,-3.125
1481274133677600,-11.25,-2.4375,-4.1875
1481274133700676,-16.8125,4.125,-2.875
1481274133716676,-22.25,7.625,-3.4375
1481274133737747,-13.375,10.375,-2.75
1481274133760750,-6.375,12.3125,-0.125
1481274133776679,-13.9375,11.4375,0
1481274133797694,-14.9375,9.5,-1.375
1481274133829804,-10.9375,8.5,-0.8125
1481274133834773,-9.6875,7.5,-0.375
1481274133857722,-8.875,7.1875,-0.0625
1481274133889268,-5.3125,7.0625,-0.4375
1481274133895233,-0.0625,6.625,-1
1481274133917780,0.875,6.9375,-2
1481274133940849,-5.0625,7.1875,-3.5
1481274133954851,-5.8125,7.625,-4.375
1481274133977793,1.4375,7.6875,-4.625
1481274134000890,4.0625,6.625,-3
1481274134014892,-0.75,4.3125,-2.875
1481274134037940,-3.25,2.0625,-2.75
1481274134060967,-3.125,0.875,-2.1875
1481274134074896,-2.25,-0.25,-1.0625
1481274134106135,-2.3125,-0.5,-0.625
1481274134121072,-2.4375,0.25,-0.3125
1481274134135131,-4.0625,0.625,0.3125
1481274134166051,-5.4375,-1.1875,0.5625
1481274134189136,-4.25,-2.625,0.5625
1481274134203646,-1.1875,-3.9375,0.4375
1481274134218643,-0.4375,-6.5625,0.125
1481274134240719,1.875,-9.3125,-0.375
1481274134254646,5.1875,-11.375,-0.375
1481274134277717,6.0625,-14.4375,-0.4375
1481274134301473,8.625,-18.5625,-0.625
1481274134315393,10.9375,-22.625,-0.4375
1481274134337467,13.625,-25.1875,0.375
1481274134360467,15.9375,-26.9375,0.875
1481274134383906,16.25,-30.125,1.25
1481274134397909,15.25,-33.3125,1.3125
1481274134420558,16.625,-35.5625,0.125
1481274134435447,19,-39.0625,-0.125
1481274134457519,20.8125,-39.875,0.9375
1481274134480451,17.25,-41.8125,1.9375
1481274134496456,14.1875,-45.4375,0.5
1481274134517482,17.6875,-49.4375,-0.125
1481274134540552,19.9375,-53.0625,0.6875
1481274134563530,19.3125,-56.25,0.5
1481274134577553,22.125,-60.5,-0.0625
1481274134601540,28.625,-65.0625,0.1875
1481274134624517,31.5,-68.625,1.0625
1481274134637590,32.1875,-71.6875,2.125
1481274134660590,38.8125,-73.625,4.125
1481274134683521,40.375,-73.4375,7.1875
1481274134697530,32.1875,-71.875,8.375
1481274134720106,28.125,-71.125,7.25
1481274134743109,32.1875,-72.1875,6.75
1481274134757126,34,-75.125,7.25
1481274134780109,34.8125,-77,8.3125
1481274134811653,35.625,-76.625,9.4375
1481274134817584,35.0625,-77.8125,11.625
1481274134848657,38.4375,-77.75,12.5
1481274134863593,40.9375,-77.375,15.9375
1481274134877575,36.0625,-77.6875,18.1875
1481274134899637,28.8125,-77.8125,19.5
1481274134923719,30.6875,-77.9375,21.75
1481274134937687,36.125,-78.1875,24.6875
1481274134959668,35.0625,-78.625,26.1875
1481274134983636,31.75,-78.25,27.375
1481274134997645,32.9375,-78.3125,28.9375
1481274135020226,34.75,-79.0625,29.6875
1481274135051183,32.4375,-78.4375,29.3125
1481274135057230,27.0625,-76.9375,29
1481274135080243,26.5625,-75.375,29.3125
1481274135103231,28.4375,-73.125,31.4375
1481274135125247,30.4375,-71.5,31.875
1481274135140258,23.75,-68.75,32.3125
1481274135163182,15.75,-64.9375,32.3125
1481274135177274,15.6875,-62.5,31.5
1481274135200141,17,-59.75,30.375
1481274135223144,13.625,-57.1875,31.875
1481274135237144,13.5625,-54.5625,32.8125
1481274135260215,16.625,-52.1875,32.875
1481274135283655,12,-51,32.8125
1481274135297658,2.1875,-51.25,31.4375
1481274135328251,-1.4375,-51.1875,30.8125
1481274135343229,2.3125,-50.625,31.0625
1481274135358169,5.3125,-48.6875,32.375
1481274135381169,7.125,-47.3125,31.6875
1481274135402974,6.5625,-47.875,29
1481274135417948,2.875,-49.1875,27.3125
1481274135441948,3.0625,-47.875,26.1875
1481274135462952,5.1875,-47.0625,24.3125
1481274135477953,6.375,-45.6875,21.75
1481274135500012,6.5625,-45.125,20
1481274135531086,6.75,-44.875,19.125
1481274135538015,6.6875,-45.4375,16.25
1481274135560086,6.25,-46.375,13.1875
1481274135583018,8.8125,-47.4375,12.4375
1481274135605531,11,-48.125,11.875
1481274135620530,16,-49.375,8.125
1481274135643603,16.8125,-51,7.875
1481274135658604,12.6875,-50,7.0625
1481274135680578,3.8125,-46.875,2.875
1481274135703363,-1.1875,-39.5,-0.9375
1481274135719293,-2,-28.9375,-0.25
1481274135740368,1.75,-17.75,1.8125
1481274135771368,2.8125,-4.875,5.125
1481274135777370,-1.125,3.0625,2.6875
1481274135799806,-0.5,5,-0.875
1481274135831815,6.1875,5.4375,-1.6875
1481274135837887,9.5,7.125,-0.75
1481274135859843,4.6875,7.8125,-3.6875
1481274135884321,-0.625,9,-4.6875
1481274135897824,-3.375,10.875,-2.8125
1481274135919901,-5.9375,12.5,-2.4375
1481274135942896,-8.5625,14.125,-2.125
1481274135960833,-5.375,13.1875,-0.75
1481274135979838,3.25,9.8125,1.9375
1481274136002664,5.625,7,3.4375
1481274136017676,1.6875,4.625,0.625
1481274136048601,-3.125,0.25,-0.3125
1481274136062674,-2.3125,-3.25,1.9375
1481274136077670,-1.125,-3.0625,2.75
1481274136107809,-0.25,-2.0625,3.4375
1481274136122810,-0.1875,-1.375,5.375
1481274136140741,-0.1875,0.375,7
1481274136161742,-1.125,2,6.5
1481274136182745,-0.9375,2.25,5.8125
1481274136197753,-0.4375,1.9375,6.4375
1481274136220262,0.8125,2.25,5.125
1481274136251304,-0.625,2.4375,3.5625
1481274136257333,-3.1875,2.0625,3.125
1481274136280347,-3.3125,1.5,1.375
1481274136311015,-0.5,1.875,1
1481274136326016,1.3125,2.875,1.125
1481274136340025,-1.4375,3.75,0.125
1481274136362947,-1.8125,4.6875,-1.5625
1481274136385954,-0.3125,6.5,-0.3125
1481274136400469,0.875,8.8125,1.3125
1481274136422534,-1.5,11.125,1.875
1481274136440465,-5.4375,13.125,1.25
1481274136460546,-3.75,15.6875,1.3125
1481274136491546,1.25,17.9375,0.75
1481274136497547,0.8125,18.1875,-0.4375
1481274136520327,-1.3125,19.3125,-0.5
1481274136550234,-0.9375,22.0625,0.3125
1481274136565237,1.5,23.75,0.0625
1481274136580319,3,27.1875,2.125
1481274136604352,4.0625,33.625,3.875
1481274136625371,2.1875,40.125,4.0625
1481274136640426,-0.9375,40.875,1.75
1481274136664355,1,42.125,1.375
1481274136685936,4.375,45,2.875
1481274136700441,6.0625,46.0625,2.5
1481274136722552,5.0625,45.375,0.1875
1481274136753574,3.9375,44.625,-1.5
1481274136768507,2.75,46.9375,-2
1481274136782510,2.3125,52.375,-2.375
1481274136804641,0.875,53.8125,-3.625
1481274136828576,4.1875,54.625,-4.3125
1481274136843592,7.375,56.6875,-4.75
1481274136864659,6.5,59.875,-4.625
1481274136882576,2.4375,61.125,-4.8125
1481274136902813,-2.5,59,-9.0625
1481274136924815,-1.375,57.875,-11.5
1481274136942711,1.8125,60.25,-9.6875
1481274136962712,3.0625,62.0625,-10.25
1481274136994291,2.375,61.0625,-15.125
1481274137000792,2.375,61.6875,-16.6875
1481274137022265,-0.4375,65.75,-13.375
1481274137046217,0.6875,71.3125,-11.6875
1481274137060286,-2.625,78.125,-10.625
1481274137082216,-9.5625,83.4375,-9.5625
1481274137107785,-10.625,88.3125,-8.9375
1481274137122791,-7.4375,90.8125,-6.6875
1481274137150790,0.75,89.4375,-7.4375
1481274137164792,3.5,83.875,-8.75
1481274137179874,-1.9375,80.5625,-9.625
1481274137202373,-14.125,75.8125,-11.375
1481274137225380,-20.125,72.4375,-11.9375
1481274137240378,-12.625,70.9375,-11.125
1481274137270379,-6.75,69,-10.75
1481274137285451,-4.5625,65.0625,-12.8125
1481274137300467,-4.1875,61.5,-14.25
1481274137322472,-4.5625,62.0625,-13.375
1481274137345473,-5.1875,65.9375,-11.375
1481274137360490,-9.9375,68.25,-11
1481274137382474,-10.625,70.375,-12.125
1481274137405156,-8.875,72.3125,-10.4375
1481274137420171,-10.6875,73.625,-9.8125
1481274137442150,-14.4375,76,-8.375
1481274137473160,-21.375,81.875,-4.8125
1481274137481091,-27.4375,87.875,-2.1875
1481274137510283,-31.0625,95.625,2.1875
1481274137525185,-34.125,100.375,5.1875
1481274137549185,-30.6875,100.313,4.0625
1481274137562259,-28.3125,98.1875,3.75
1481274137585186,-31.75,94.9375,2.5625
1481274137601196,-33.8125,93.3125,-0.1875
1481274137622236,-33.875,89.75,-0.1875
1481274137645242,-33.25,85.6875,-0.5625
1481274137663226,-29.4375,82.6875,-0.625
1481274137682227,-26.8125,76.75,-2.125
1481274137713328,-24.25,70.125,-4.1875
1481274137721331,-18.9375,63.5625,-5.1875
1481274137742408,-19.125,57.4375,-4.875
1481274137773408,-22.5625,51.5,-7.1875
1481274137781336,-20.0625,48.375,-10.1875
1481274137802536,-13.9375,45.625,-10.25
1481274137825469,-7.8125,41,-10.75
1481274137841468,-3.375,34.625,-12.6875
1481274137862539,-5.75,26.8125,-14.5
1481274137885470,-6.875,21.75,-15.25
1481274137907974,-4.1875,19.375,-15.875
1481274137922975,-0.75,19.25,-15.375
1481274137945045,-4,19.25,-14.125
1481274137967953,-2.6875,19,-12.9375
1481274137991034,0.5625,17.9375,-11.6875
1481274138005562,-3.8125,14.9375,-11.1875
1481274138027631,-9.4375,10.5625,-10.8125
1481274138050582,-5.0625,6.8125,-11.0625
1481274138064564,1.9375,2.9375,-10
1481274138081561,4,-1.875,-8.125
1481274138105682,6.125,-5.9375,-7.25
1481274138126683,8.3125,-8.625,-7.1875
1481274138141685,5.75,-10.3125,-6.3125
1481274138162754,1.5,-10.4375,-5
1481274138184714,-1.1875,-8.875,-3.8125
1481274138201697,-2.5,-7,-2.8125
1481274138222206,-1.5625,-5.5,-0.8125
1481274138245204,-0.375,-4.375,1.0625
1481274138269207,-0.1875,-3.5625,2.5
1481274138282208,-2.625,-3.375,1.9375
1481274138304857,-3,-3.75,0.8125
1481274138327820,-1.125,-3.8125,0
1481274138342887,-1.0625,-3.1875,-0.9375
1481274138364825,0.0625,-3.0625,-1.5625
1481274138387912,2.75,-3.4375,-1.75
1481274138402941,4.375,-3.6875,-1.875
1481274138434935,3.125,-4.0625,-1.5625
1481274138447939,0.4375,-4.0625,-1.0625
1481274138463936,-3.5,-5.25,-1.25
1481274138493518,-2.3125,-5.8125,-1.5625
1481274138509049,-0.625,-6.25,-1.3125
1481274138524049,-1.1875,-7.25,-1.625
1481274138546117,1.625,-7.5,-2.1875
1481274138567053,3.5,-6.625,-2.5
1481274138584053,0.6875,-5.4375,-2.9375
1481274138605159,-0.75,-5,-3.1875
1481274138628159,2.125,-3.5,-1.9375
1481274138644158,2.875,-2.375,-1.125
1481274138665159,-0.5,-1.375,-0.9375
1481274138696760,-2.4375,0.0625,-0.8125
1481274138711295,-0.25,0.25,-0.125
1481274138725362,1.625,-0.1875,0
1481274138747295,1.5625,-1.4375,-0.625
1481274138771293,2.1875,-2.8125,-1.125
1481274138785297,4.5625,-2.875,-0.4375
1481274138807815,4.125,-2.75,0.125
1481274138825816,3.125,-2.375,-0.0625
1481274138844818,1.5625,-1.25,-0.8125
1481274138867818,0.5,-0.0625,-1.875
1481274138885818,3.6875,1.4375,-1.1875
1481274138904922,4.6875,2.5625,-0.4375
1481274138927844,3.4375,3,-0.6875
1481274138943843,0.6875,2.5625,-1.1875
1481274138964845,0.3125,2.4375,-1.5
1481274138989351,1.625,2.5,-1.3125
1481274139003812,2.1875,2.125,-1.4375
1481274139024814,2.8125,1.375,-1.6875
1481274139048814,2.75,1.4375,-1.3125
1481274139063817,2,0.8125,-1.3125
1481274139086815,0.8125,0.25,-1.3125
1481274139107705,-0.5625,0,-0.8125
1481274139123695,0.5,-0.125,-0.25
1481274139144758,0.9375,-1,0.5
1481274139167688,-0.5625,-1.3125,0.9375
1481274139183688,-1.1875,-1.5,0.9375
1481274139213599,-2,-1.625,0.625
1481274139227668,-1.125,-1.75,0.75
1481274139243600,-1.3125,-2.0625,1
1481274139268600,-2.1875,-2,0.625
1481274139289198,-1.6875,-2.125,0.3125
1481274139303708,-1.9375,-2.375,0
1481274139327708,-1.125,-2.5,-0.125
1481274139347709,-1.4375,-1.8125,-0.4375
1481274139363709,-2.5625,-1.0625,-0.625
1481274139386711,-0.875,-0.625,-0.375
1481274139407259,-0.75,0,-0.3125
1481274139438259,-3.3125,0.1875,-0.5625
1481274139446260,-2.5625,0.0625,-1.0625
1481274139467261,-0.6875,-0.3125,-1.375
1481274139491845,0.375,-0.9375,-1.625
1481274139506406,0.1875,-1.5,-2.0625
1481274139527478,0.625,-1.1875,-2
1481274139545409,0.375,-1.0625,-1.5
1481274139566410,-0.0625,-1.5,-1.375
1481274139587992,-1.375,-1.375,-1.1875
1481274139603723,-0.9375,-0.8125,-1.4375
1481274139626710,1,-0.5625,-1.375
1481274139647712,0.6875,-0.5,-1.25
1481274139663759,-0.5625,-0.25,-1.4375
1481274139686713,-1.0625,-0.125,-1.25
1481274139716234,-0.25,0.125,-1.0625
1481274139724229,0.125,0.1875,-0.375
1481274139746267,-0.4375,0.4375,-0.375
1481274139767231,-1.5,0.4375,-0.75
1481274139784232,-1.875,0.1875,-0.9375
1481274139821112,-0.125,0.25,-0.5625
1481274139827103,0.75,0.5625,-0.125
1481274139844032,-1.125,0,-0.5
1481274139873047,-2.0625,-0.9375,-1.125
1481274139896046,-0.5,-1.125,-1
