timestamp,x,y,z,w
1481274127010932,-0.137451,0.129822,-0.548157,0.814697
1481274127027441,-0.137878,0.130005,-0.54834,0.814514
1481274127055440,-0.137939,0.130188,-0.548523,0.814331
1481274127070445,-0.137695,0.13031,-0.548706,0.814209
1481274127086444,-0.137512,0.130371,-0.549011,0.814087
1481274127115456,-0.137695,0.130676,-0.549255,0.813782
1481274127130533,-0.137695,0.13092,-0.549561,0.813538
1481274127146458,-0.13739,0.131042,-0.549866,0.813416
1481274127169461,-0.13678,0.130981,-0.55011,0.813354
1481274127191496,-0.13678,0.131287,-0.550354,0.81311
1481274127207470,-0.137207,0.131836,-0.550659,0.812744
1481274127229476,-0.137268,0.13208,-0.550964,0.8125
1481274127250547,-0.136963,0.132202,-0.551331,0.812256
1481274127266477,-0.136475,0.13208,-0.551758,0.812073
1481274127289478,-0.136169,0.131958,-0.552124,0.81189
1481274127310989,-0.136169,0.131836,-0.55249,0.811707
1481274127334495,-0.136108,0.131653,-0.552795,0.811523
1481274127349495,-0.135681,0.131348,-0.55304,0.811462
1481274127370569,-0.135315,0.131104,-0.553284,0.811401
1481274127394500,-0.135315,0.130859,-0.553467,0.81134
1481274127433068,-0.135315,0.130859,-0.553467,0.81134
1481274127435068,-0.135254,0.130615,-0.553406,0.811401
1481274127448068,-0.135437,0.130432,-0.553345,0.811462
1481274127469070,-0.135803,0.130371,-0.553162,0.811523
1481274127490071,-0.136169,0.130432,-0.553101,0.811523
1481274127506658,-0.136353,0.130188,-0.552979,0.811584
1481274127529666,-0.136108,0.129944,-0.552917,0.811707
1481274127557668,-0.136108,0.129944,-0.552917,0.811707
1481274127566669,-0.136414,0.130005,-0.552795,0.811707
1481274127589668,-0.136475,0.130005,-0.552795,0.811707
1481274127610756,-0.136414,0.130005,-0.552795,0.811707
1481274127626763,-0.136475,0.130249,-0.552734,0.811707
1481274127649766,-0.136292,0.130493,-0.552673,0.811768
1481274127670766,-0.135925,0.130737,-0.552551,0.811829
1481274127686767,-0.135681,0.130981,-0.552551,0.81189
1481274127709784,-0.135803,0.131592,-0.552429,0.811829
1481274127730792,-0.136047,0.13208,-0.552246,0.811829
1481274127746793,-0.136047,0.13208,-0.552246,0.811829
1481274127769793,-0.135925,0.132202,-0.552246,0.811829
1481274127790800,-0.135864,0.132446,-0.552185,0.811829
1481274127806381,-0.135986,0.132874,-0.552124,0.811768
1481274127836890,-0.136292,0.133423,-0.552002,0.811707
1481274127850891,-0.136047,0.133362,-0.551941,0.811829
1481274127865963,-0.135193,0.132996,-0.55188,0.812073
1481274127889890,-0.13446,0.132874,-0.551941,0.812195
1481274127910973,-0.134216,0.133057,-0.551941,0.812134
1481274127926642,-0.134033,0.133301,-0.551941,0.812134
1481274127949648,-0.134155,0.133789,-0.551819,0.812134
1481274127970651,-0.134338,0.134277,-0.551697,0.812134
1481274127986648,-0.134338,0.134827,-0.551514,0.812134
1481274128009230,-0.134094,0.135193,-0.551331,0.812256
1481274128030152,-0.133972,0.135559,-0.551147,0.812317
1481274128046144,-0.134094,0.136292,-0.550903,0.812378
1481274128069145,-0.134583,0.137329,-0.550476,0.812439
1481274128090228,-0.134766,0.138184,-0.550171,0.812439
1481274128114249,-0.134766,0.138916,-0.549927,0.812439
1481274128129244,-0.134644,0.139709,-0.549683,0.8125
1481274128150251,-0.134277,0.140503,-0.549561,0.812561
1481274128166247,-0.133728,0.141663,-0.549438,0.8125
1481274128189248,-0.133667,0.143188,-0.549316,0.812317
1481274128212254,-0.133606,0.14447,-0.549072,0.812256
1481274128233263,-0.13324,0.145386,-0.548828,0.812378
1481274128249263,-0.132874,0.146118,-0.548584,0.812439
1481274128279265,-0.132874,0.146912,-0.548401,0.812378
1481274128294268,-0.13324,0.147705,-0.548279,0.812317
1481274128309277,-0.133118,0.14801,-0.548218,0.812256
1481274128339285,-0.132507,0.148071,-0.548401,0.812256
1481274128353285,-0.132446,0.148376,-0.548523,0.812134
1481274128369287,-0.132263,0.148254,-0.548645,0.812073
1481274128392288,-0.131531,0.147644,-0.548828,0.812195
1481274128413294,-0.130859,0.147156,-0.549011,0.812256
1481274128429301,-0.130859,0.147156,-0.549011,0.812256
1481274128452302,-0.130615,0.146973,-0.549072,0.812317
1481274128473303,-0.130554,0.146973,-0.549072,0.812317
1481274128489305,-0.131226,0.147522,-0.548889,0.812256
1481274128512314,-0.132019,0.148438,-0.548401,0.812256
1481274128533317,-0.132874,0.149658,-0.547791,0.812317
1481274128557320,-0.133667,0.151245,-0.547058,0.812378
1481274128572321,-0.134705,0.153137,-0.546082,0.8125
1481274128593324,-0.134827,0.154114,-0.545105,0.812988
1481274128617327,-0.133423,0.154236,-0.544373,0.81366
1481274128632329,-0.131775,0.154785,-0.54364,0.814331
1481274128653332,-0.129456,0.15509,-0.542847,0.815125
1481274128669334,-0.126038,0.154968,-0.542236,0.816162
1481274128692337,-0.122803,0.155579,-0.541565,0.816956
1481274128720840,-0.120117,0.157166,-0.540894,0.817505
1481274128728841,-0.117004,0.159119,-0.540283,0.817993
1481274128752845,-0.114502,0.161926,-0.539429,0.818359
1481274128780848,-0.112549,0.165161,-0.538452,0.818604
1481274128788849,-0.110901,0.168518,-0.537415,0.818848
1481274128812352,-0.108887,0.171448,-0.536194,0.819275
1481274128834855,-0.106506,0.174438,-0.534973,0.819763
1481274128848857,-0.10498,0.178711,-0.533386,0.820068
1481274128872359,-0.104309,0.18396,-0.531372,0.820313
1481274128893362,-0.103638,0.189331,-0.529297,0.820496
1481274128908865,-0.103088,0.195129,-0.5271,0.820618
1481274128931367,-0.10321,0.201294,-0.524902,0.820557
1481274128953370,-0.103516,0.207153,-0.522827,0.820374
1481274128969372,-0.102905,0.211731,-0.521118,0.820374
1481274128991374,-0.100769,0.21521,-0.519714,0.820618
1481274129013378,-0.0981445,0.218445,-0.518372,0.820923
1481274129029379,-0.0959473,0.22229,-0.516724,0.821167
1481274129052382,-0.0949707,0.226807,-0.515015,0.821106
1481274129073385,-0.0943604,0.231628,-0.513184,0.820984
1481274129088887,-0.093689,0.23645,-0.51123,0.820923
1481274129111390,-0.0931396,0.241882,-0.509033,0.820801
1481274129134893,-0.0935669,0.248108,-0.506531,0.820435
1481274129148895,-0.0942993,0.254639,-0.504089,0.819824
1481274129171397,-0.0941162,0.261108,-0.501709,0.819275
1481274129194900,-0.0938721,0.267822,-0.498901,0.818848
1481274129208903,-0.093689,0.274292,-0.49585,0.818604
1481274129231405,-0.093811,0.281006,-0.492676,0.818237
1481274129254908,-0.0942383,0.287903,-0.489502,0.817688
1481274129269910,-0.0941162,0.294434,-0.48645,0.817139
1481274129291413,-0.093689,0.300659,-0.483337,0.816833
1481274129314922,-0.09198,0.305969,-0.480347,0.816772
1481274129336924,-0.0894165,0.311279,-0.477539,0.816711
1481274129350925,-0.0872803,0.317017,-0.474731,0.816406
1481274129374926,-0.0855103,0.322754,-0.471863,0.815979
1481274129395941,-0.0836182,0.328247,-0.469116,0.815613
1481274129410941,-0.0811157,0.333374,-0.466675,0.815125
1481274129434943,-0.0783081,0.338806,-0.464355,0.814514
1481274129455955,-0.0761108,0.345154,-0.461182,0.813843
1481274129470945,-0.074707,0.351807,-0.457153,0.813416
1481274129494955,-0.0744629,0.359253,-0.452515,0.812744
1481274129522963,-0.0762329,0.368103,-0.447266,0.811523
1481274129539964,-0.0787354,0.376892,-0.441833,0.810242
1481274129554964,-0.0792236,0.384766,-0.437378,0.80896
1481274129575965,-0.0778198,0.392761,-0.432983,0.807556
1481274129591975,-0.0776367,0.401733,-0.427917,0.805908
1481274129613983,-0.0787964,0.411133,-0.422485,0.803894
1481274129635986,-0.0797729,0.420471,-0.416809,0.80188
1481274129651987,-0.0806274,0.429932,-0.411072,0.799805
1481274129674987,-0.0812988,0.439697,-0.405151,0.797424
1481274129703010,-0.0825195,0.450562,-0.398499,0.794556
1481274129711004,-0.0853882,0.462158,-0.390991,0.791321
1481274129734003,-0.0876465,0.473267,-0.383667,0.788086
1481274129756006,-0.0883789,0.484192,-0.376282,0.784912
1481274129771007,-0.0888672,0.495361,-0.36853,0.781555
1481274129794516,-0.0894165,0.506287,-0.360657,0.778198
1481274129816041,-0.0888672,0.516357,-0.353271,0.775024
1481274129831027,-0.0869751,0.525879,-0.34613,0.772034
1481274129855026,-0.0849609,0.535339,-0.338562,0.769104
1481274129876060,-0.0828857,0.544495,-0.331055,0.766174
1481274129906063,-0.0797729,0.553162,-0.323975,0.763306
1481274129914046,-0.0761108,0.562073,-0.316956,0.760132
1481274129936052,-0.0733032,0.57135,-0.309753,0.756409
1481274129951049,-0.0713501,0.580383,-0.302124,0.752808
1481274129974049,-0.0687256,0.590942,-0.293762,0.748169
1481274129996144,-0.0658569,0.602905,-0.285767,0.741943
1481274130011143,-0.0628052,0.614075,-0.278381,0.735779
1481274130034140,-0.059021,0.623352,-0.272095,0.730652
1481274130055143,-0.0551758,0.632263,-0.265503,0.725647
1481274130071145,-0.0531006,0.640564,-0.258179,0.721191
1481274130094154,-0.0518188,0.648254,-0.251526,0.716736
1481274130116994,-0.0496216,0.655151,-0.245911,0.712585
1481274130137997,-0.0465698,0.66156,-0.240662,0.708618
1481274130153996,-0.0440063,0.668091,-0.234985,0.70459
1481274130183577,-0.0422974,0.67511,-0.228577,0.700073
1481274130191577,-0.0410156,0.68219,-0.221558,0.695557
1481274130214082,-0.0396118,0.689087,-0.2146,0.690979
1481274130237083,-0.0377197,0.696045,-0.207886,0.686157
1481274130252087,-0.0356445,0.703003,-0.201477,0.68103
1481274130274085,-0.0336304,0.710022,-0.195496,0.675598
1481274130297157,-0.0318604,0.716858,-0.189453,0.670166
1481274130312158,-0.0299683,0.723816,-0.182739,0.664612
1481274130334159,-0.0292358,0.730713,-0.174744,0.659241
1481274130357160,-0.0297241,0.737244,-0.166626,0.653992
1481274130378161,-0.0294189,0.743225,-0.15979,0.648987
1481274130394169,-0.027771,0.74884,-0.154053,0.643982
1481274130422847,-0.0257568,0.754333,-0.148376,0.638916
1481274130437848,-0.0248413,0.759705,-0.141907,0.634033
1481274130453848,-0.0256348,0.764038,-0.135925,0.630066
1481274130476850,-0.0257568,0.767395,-0.131958,0.626892
1481274130497987,-0.024292,0.769714,-0.130249,0.624451
1481274130521916,-0.0219727,0.771301,-0.1297,0.622681
1481274130536917,-0.0205078,0.771973,-0.129089,0.622009
1481274130557990,-0.0199585,0.771912,-0.128601,0.622192
1481274130573919,-0.0199585,0.771362,-0.128479,0.622925
1481274130597072,-0.019104,0.770508,-0.129517,0.623779
1481274130618075,-0.0171509,0.769897,-0.130615,0.62439
1481274130634074,-0.0162354,0.769226,-0.130615,0.625183
1481274130657076,-0.0161743,0.768311,-0.130859,0.626282
1481274130678079,-0.0148315,0.767761,-0.131348,0.626892
1481274130694092,-0.0140991,0.767578,-0.131042,0.627197
1481274130717501,-0.0144653,0.767334,-0.131104,0.627441
1481274130738512,-0.0142822,0.766968,-0.132202,0.627686
1481274130753506,-0.0131836,0.766663,-0.13324,0.627869
1481274130777505,-0.0128174,0.766357,-0.133667,0.628174
1481274130798289,-0.0128174,0.76593,-0.134338,0.62854
1481274130814220,-0.0125732,0.765442,-0.135193,0.628967
1481274130836224,-0.0126343,0.764832,-0.136047,0.629517
1481274130866227,-0.0129395,0.764038,-0.137268,0.630188
1481274130874223,-0.0127563,0.763184,-0.138611,0.63092
1481274130896329,-0.0125732,0.762695,-0.139404,0.631348
1481274130918330,-0.0130005,0.762451,-0.139832,0.631531
1481274130934330,-0.0136108,0.762207,-0.140259,0.631775
1481274130956330,-0.0136719,0.761719,-0.141174,0.632141
1481274130979333,-0.0133057,0.760925,-0.142029,0.632874
1481274130994342,-0.0133667,0.76001,-0.142822,0.63385
1481274131016848,-0.0133667,0.759033,-0.143799,0.634766
1481274131039849,-0.0134277,0.757996,-0.144409,0.635864
1481274131053849,-0.0136719,0.757324,-0.144531,0.636658
1481274131076851,-0.0137939,0.756897,-0.144531,0.637146
1481274131099865,-0.0136108,0.756714,-0.14447,0.637329
1481274131113865,-0.0135498,0.757019,-0.143982,0.637146
1481274131135879,-0.013855,0.757446,-0.143494,0.636719
1481274131159869,-0.0140381,0.757629,-0.143311,0.636536
1481274131173871,-0.0137939,0.757446,-0.143372,0.636719
1481274131196884,-0.0136108,0.756897,-0.143799,0.637329
1481274131219885,-0.0134277,0.756165,-0.14447,0.638062
1481274131233888,-0.0131836,0.755249,-0.145325,0.638916
1481274131256889,-0.0128174,0.754272,-0.14624,0.639832
1481274131279889,-0.0124512,0.753662,-0.146667,0.640503
1481274131293898,-0.0122681,0.753296,-0.146973,0.640869
1481274131316478,-0.012085,0.753113,-0.1474,0.640991
1481274131339487,-0.0117798,0.752869,-0.147827,0.641174
1481274131353479,-0.0117188,0.752563,-0.148254,0.641479
1481274131376478,-0.0120239,0.752258,-0.148926,0.641663
1481274131399509,-0.0119019,0.751831,-0.149719,0.641968
1481274131413520,-0.0117188,0.751404,-0.150269,0.642334
1481274131444513,-0.0119629,0.750854,-0.150635,0.642883
1481274131459512,-0.0118408,0.750366,-0.151184,0.643372
1481274131473538,-0.0116577,0.75,-0.151306,0.643738
1481274131496592,-0.0120239,0.749634,-0.151184,0.644226
1481274131519595,-0.012207,0.749146,-0.151489,0.644653
1481274131540668,-0.0117798,0.748779,-0.1521,0.64502
1481274131556599,-0.0114746,0.748474,-0.152283,0.645325
1481274131579599,-0.0115356,0.748108,-0.152466,0.645691
1481274131616669,-0.0113525,0.747559,-0.153137,0.646179
1481274131619666,-0.010498,0.746887,-0.154114,0.646729
1481274131639667,-0.0100098,0.746399,-0.15448,0.647217
1481274131668701,-0.0103149,0.745911,-0.154541,0.647766
1481274131684755,-0.0105591,0.745361,-0.155029,0.648254
1481274131699829,-0.00994873,0.744934,-0.155823,0.64856
1481274131721829,-0.00939941,0.744629,-0.156433,0.648743
1481274131736832,-0.0090332,0.744324,-0.15686,0.648987
1481274131759834,-0.00872803,0.744019,-0.15686,0.649414
1481274131782842,-0.00891113,0.743835,-0.156555,0.649658
1481274131795843,-0.0088501,0.74353,-0.156677,0.649963
1481274131818937,-0.00823975,0.743042,-0.156921,0.650452
1481274131841021,-0.00756836,0.742554,-0.157166,0.651001
1481274131856941,-0.00714111,0.742004,-0.157104,0.651611
1481274131895455,-0.00744629,0.741394,-0.15686,0.652344
1481274131900464,-0.00762939,0.740784,-0.156982,0.653015
1481274131916465,-0.00744629,0.740112,-0.15741,0.653748
1481274131947467,-0.00726318,0.739502,-0.157776,0.654297
1481274131960477,-0.00720215,0.739075,-0.158142,0.654724
1481274131976468,-0.00738525,0.738464,-0.158508,0.655273
1481274131999147,-0.00732422,0.737915,-0.15918,0.655762
1481274132022144,-0.00732422,0.737366,-0.159729,0.65625
1481274132036147,-0.00775146,0.736694,-0.160156,0.65686
1481274132059141,-0.00823975,0.736023,-0.160889,0.657471
1481274132082148,-0.00823975,0.735352,-0.161743,0.657959
1481274132096650,-0.00830078,0.73468,-0.162537,0.658569
1481274132118658,-0.00891113,0.733948,-0.163391,0.659119
1481274132149660,-0.00915527,0.732849,-0.164917,0.659973
1481274132171685,-0.00860596,0.731445,-0.167175,0.661011
1481274132187252,-0.00836182,0.729614,-0.169495,0.662415
1481274132201764,-0.00811768,0.727295,-0.172424,0.664185
1481274132216762,-0.00732422,0.724915,-0.174927,0.666199
1481274132238763,-0.00793457,0.722656,-0.176453,0.668213
1481274132261779,-0.00915527,0.720093,-0.178284,0.670471
1481274132283347,-0.00866699,0.717102,-0.181641,0.672791
1481274132298476,-0.00714111,0.713745,-0.185181,0.675415
1481274132322392,-0.00689697,0.709961,-0.18811,0.678528
1481274132343465,-0.00756836,0.705139,-0.191895,0.682495
1481274132367394,-0.00714111,0.698853,-0.197815,0.687256
1481274132382401,-0.00469971,0.692627,-0.20343,0.691956
1481274132403498,-0.00408936,0.686646,-0.207581,0.696655
1481274132418427,-0.00543213,0.680115,-0.212097,0.701721
1481274132442426,-0.00500488,0.672363,-0.21875,0.707092
1481274132463499,-0.00140381,0.665466,-0.224121,0.711975
1481274132478431,-0.00177002,0.660095,-0.22644,0.716187
1481274132502089,-0.00518799,0.65509,-0.228271,0.720154
1481274132523102,-0.00744629,0.649292,-0.231567,0.724304
1481274132539019,-0.00744629,0.642578,-0.23645,0.72876
1481274132562021,-0.00683594,0.636414,-0.240234,0.73291
1481274132583528,-0.0090332,0.630127,-0.243347,0.737305
1481274132607035,-0.0119019,0.622986,-0.247375,0.741943
1481274132622036,-0.0131836,0.615295,-0.252441,0.746643
1481274132643109,-0.0142212,0.606689,-0.257996,0.751709
1481274132667040,-0.0151367,0.597351,-0.263977,0.75708
1481274132682119,-0.0158081,0.587524,-0.269836,0.762695
1481274132702777,-0.0169678,0.577332,-0.27533,0.768494
1481274132726709,-0.0187988,0.566711,-0.280945,0.774231
1481274132741706,-0.0200806,0.555908,-0.28656,0.779968
1481274132762778,-0.0214233,0.544373,-0.291992,0.786072
1481274132778710,-0.022522,0.531799,-0.298157,0.792297
1481274132801808,-0.0218506,0.518127,-0.305115,0.798706
1481274132830878,-0.0206299,0.503845,-0.311401,0.805359
1481274132838805,-0.020752,0.489807,-0.316833,0.81189
1481274132861808,-0.0218506,0.47583,-0.322144,0.818054
1481274132892388,-0.0217896,0.461304,-0.327759,0.824158
1481274132906911,-0.0200806,0.445923,-0.333435,0.830383
1481274132921911,-0.017395,0.430176,-0.338989,0.836487
1481274132944912,-0.0150757,0.415039,-0.344055,0.842102
1481274132959913,-0.013916,0.400635,-0.348022,0.847412
1481274132981914,-0.0126953,0.386902,-0.351013,0.8526
1481274133004368,-0.0125732,0.375122,-0.352661,0.857178
1481274133020366,-0.0140381,0.365479,-0.353149,0.861084
1481274133041368,-0.0155029,0.356934,-0.35321,0.864624
1481274133064369,-0.0178223,0.348694,-0.352905,0.868042
1481274133078377,-0.0205688,0.340027,-0.352722,0.87146
1481274133100971,-0.0230103,0.330444,-0.352783,0.875061
1481274133124973,-0.0250244,0.32019,-0.352966,0.878784
1481274133138973,-0.0272827,0.309753,-0.353027,0.882385
1481274133160976,-0.029541,0.298645,-0.353455,0.885986
1481274133184554,-0.031189,0.28656,-0.354431,0.889526
1481274133205563,-0.0319824,0.273499,-0.355652,0.893127
1481274133221562,-0.0322266,0.26001,-0.356934,0.896606
1481274133244564,-0.0327148,0.245728,-0.358459,0.900024
1481274133265631,-0.0324707,0.22998,-0.360657,0.90332
1481274133281566,-0.0307617,0.213623,-0.363159,0.906372
1481274133304178,-0.02948,0.197144,-0.365479,0.90918
1481274133317177,-0.0281372,0.179688,-0.367981,0.911865
1481274133340181,-0.0241089,0.161194,-0.370422,0.914429
1481274133355253,-0.0198364,0.143494,-0.372009,0.916809
1481274133377252,-0.0181274,0.127014,-0.373474,0.918701
1481274133400338,-0.0164795,0.110535,-0.37561,0.919983
1481274133415340,-0.0131226,0.09375,-0.377563,0.921082
1481274133437414,-0.00982666,0.0782471,-0.378662,0.922119
1481274133460412,-0.00775146,0.0646362,-0.379578,0.922852
1481274133475344,-0.0055542,0.0522461,-0.380188,0.923401
1481274133498541,-0.00335693,0.0410156,-0.380615,0.923767
1481274133520611,-0.00311279,0.0317993,-0.381104,0.92395
1481274133534542,-0.00421143,0.0238647,-0.381653,0.92395
1481274133557663,-0.0055542,0.0172119,-0.381897,0.924011
1481274133580623,-0.00720215,0.0118408,-0.38208,0.924011
1481274133595055,-0.00872803,0.00787354,-0.382446,0.923889
1481274133617598,-0.00958252,0.00494385,-0.382751,0.923767
1481274133640599,-0.0109863,0.0032959,-0.382874,0.923706
1481274133663638,-0.0128784,0.00268555,-0.383362,0.923462
1481274133677600,-0.0146484,0.00286865,-0.384033,0.923157
1481274133700676,-0.0167236,0.00439453,-0.384521,0.922974
1481274133716676,-0.0197144,0.00720215,-0.385071,0.922668
1481274133737747,-0.0212402,0.0100098,-0.385498,0.922363
1481274133760750,-0.0211792,0.0124512,-0.385559,0.922363
1481274133776679,-0.0222168,0.0152588,-0.385559,0.922302
1481274133797694,-0.0239258,0.0179443,-0.385742,0.922119
1481274133829804,-0.0250854,0.0200806,-0.385864,0.921997
1481274133834773,-0.026062,0.0217896,-0.385925,0.921875
1481274133857722,-0.0269775,0.0234985,-0.385925,0.921814
1481274133889268,-0.0274658,0.0249023,-0.386047,0.921753
1481274133895233,-0.0269775,0.0259399,-0.38623,0.921631
1481274133917780,-0.026062,0.0266113,-0.386597,0.921509
1481274133940849,-0.0262451,0.02771,-0.387146,0.921204
1481274133954851,-0.0267944,0.0291748,-0.387878,0.920837
1481274133977793,-0.026123,0.0303345,-0.388672,0.920471
1481274134000890,-0.0249023,0.0310669,-0.38916,0.920288
1481274134014892,-0.0244141,0.0317993,-0.389648,0.920105
1481274134037940,-0.0247192,0.0322876,-0.390076,0.919861
1481274134060967,-0.0250244,0.0327759,-0.390381,0.919678
1481274134074896,-0.0252686,0.032959,-0.390564,0.919617
1481274134106135,-0.0255737,0.032959,-0.390625,0.919556
1481274134121072,-0.0258789,0.0331421,-0.390686,0.919556
1481274134135131,-0.0263672,0.0336304,-0.390564,0.919556
1481274134166051,-0.0274048,0.0339966,-0.390442,0.919556
1481274134189136,-0.0282593,0.0339355,-0.39032,0.919617
1481274134203646,-0.0286255,0.0335693,-0.390198,0.919678
1481274134218643,-0.0290527,0.0328369,-0.390137,0.919678
1481274134240719,-0.0293579,0.0314331,-0.390137,0.919739
1481274134254646,-0.0292358,0.0294189,-0.390198,0.9198
1481274134277717,-0.0290527,0.0268555,-0.390198,0.919861
1481274134301473,-0.0287476,0.0236816,-0.390198,0.919983
1481274134315393,-0.0283203,0.0197754,-0.390198,0.920044
1481274134337467,-0.027832,0.0150757,-0.390015,0.920227
1481274134360467,-0.0268555,0.00994873,-0.389771,0.920471
1481274134383906,-0.0261841,0.00427246,-0.389465,0.920654
1481274134397909,-0.026001,-0.00189209,-0.389099,0.920837
1481274134420558,-0.0256958,-0.00854492,-0.388855,0.920898
1481274134435447,-0.0252686,-0.015686,-0.388672,0.920898
1481274134457519,-0.0244751,-0.0232544,-0.388245,0.920898
1481274134480451,-0.024292,-0.0310059,-0.387695,0.920898
1481274134496456,-0.0250854,-0.0390015,-0.387329,0.920776
1481274134517482,-0.0256348,-0.0476685,-0.387024,0.920471
1481274134540552,-0.0258789,-0.0571899,-0.386475,0.920166
1481274134563530,-0.0265503,-0.0673828,-0.385925,0.919678
1481274134577553,-0.0270386,-0.078186,-0.385376,0.919006
1481274134601540,-0.0267334,-0.0899658,-0.384644,0.918274
1481274134624517,-0.026123,-0.1026,-0.383606,0.917358
1481274134637590,-0.0256958,-0.115845,-0.382324,0.916382
1481274134660590,-0.0244141,-0.129822,-0.380554,0.915283
1481274134683521,-0.0227661,-0.143982,-0.378174,0.914185
1481274134697530,-0.0222778,-0.157471,-0.375732,0.912964
1481274134720106,-0.022644,-0.170654,-0.373535,0.911499
1481274134743109,-0.0222778,-0.184082,-0.371155,0.909851
1481274134757126,-0.0217285,-0.198059,-0.368652,0.907959
1481274134780109,-0.0213013,-0.212341,-0.365845,0.905884
1481274134811653,-0.020874,-0.226563,-0.362732,0.903687
1481274134817584,-0.020752,-0.240906,-0.359131,0.901428
1481274134848657,-0.0203247,-0.255371,-0.355164,0.898987
1481274134863593,-0.019165,-0.269958,-0.350586,0.896545
1481274134877575,-0.0188599,-0.284424,-0.345825,0.893921
1481274134899637,-0.0199585,-0.298279,-0.341064,0.891235
1481274134923719,-0.0211182,-0.312073,-0.335693,0.88855
1481274134937687,-0.0214844,-0.326111,-0.32959,0.885742
1481274134959668,-0.0219727,-0.34021,-0.323181,0.882751
1481274134983636,-0.0231934,-0.354126,-0.316711,0.879639
1481274134997645,-0.024353,-0.36792,-0.309814,0.876404
1481274135020226,-0.0250854,-0.381653,-0.302734,0.872986
1481274135051183,-0.0259399,-0.395264,-0.295776,0.869263
1481274135057230,-0.02771,-0.408264,-0.289185,0.865417
1481274135080243,-0.0297852,-0.420715,-0.282349,0.861572
1481274135103231,-0.0316772,-0.4328,-0.275024,0.85791
1481274135125247,-0.0328979,-0.444458,-0.267578,0.854248
1481274135140258,-0.0348511,-0.455505,-0.26062,0.850525
1481274135163182,-0.0380249,-0.465515,-0.25415,0.846924
1481274135177274,-0.0412598,-0.474915,-0.247681,0.843445
1481274135200141,-0.0439453,-0.484009,-0.241333,0.839966
1481274135223144,-0.0472412,-0.492554,-0.234924,0.836609
1481274135237144,-0.050415,-0.500671,-0.228455,0.833435
1481274135260215,-0.0527954,-0.508606,-0.221863,0.830261
1481274135283655,-0.055603,-0.516235,-0.215698,0.826965
1481274135297658,-0.0598755,-0.523438,-0.210571,0.823486
1481274135328251,-0.0649414,-0.530273,-0.205627,0.819946
1481274135343229,-0.0695801,-0.53717,-0.200195,0.816406
1481274135358169,-0.0737915,-0.544006,-0.194275,0.812927
1481274135381169,-0.0775146,-0.550598,-0.188416,0.809509
1481274135402974,-0.0810547,-0.557373,-0.182922,0.805786
1481274135417948,-0.085022,-0.564209,-0.177979,0.801697
1481274135441948,-0.0890503,-0.570862,-0.172974,0.797668
1481274135462952,-0.0925293,-0.577271,-0.168091,0.793701
1481274135477953,-0.0953369,-0.583618,-0.163513,0.789673
1481274135500012,-0.0981445,-0.589905,-0.159058,0.785583
1481274135531086,-0.100647,-0.595947,-0.154785,0.781494
1481274135538015,-0.102783,-0.602112,-0.151001,0.777222
1481274135560086,-0.104675,-0.608582,-0.147583,0.772583
1481274135583018,-0.106445,-0.615234,-0.143738,0.767822
1481274135605531,-0.107727,-0.62207,-0.139832,0.762817
1481274135620530,-0.107971,-0.62915,-0.135864,0.757629
1481274135643603,-0.108032,-0.636597,-0.131775,0.752136
1481274135658604,-0.108276,-0.643799,-0.128479,0.746521
1481274135680578,-0.109314,-0.650208,-0.126648,0.741089
1481274135703363,-0.110596,-0.655518,-0.125793,0.736389
1481274135719293,-0.112061,-0.659241,-0.124939,0.732971
1481274135740368,-0.112976,-0.66156,-0.123718,0.730957
1481274135771368,-0.113525,-0.662048,-0.122375,0.730652
1481274135777370,-0.114075,-0.661255,-0.122131,0.731323
1481274135799806,-0.114197,-0.660461,-0.122131,0.732056
1481274135831815,-0.113464,-0.659973,-0.121399,0.732727
1481274135837887,-0.112183,-0.659241,-0.120422,0.733704
1481274135859843,-0.110718,-0.65863,-0.120728,0.734436
1481274135884321,-0.110046,-0.657776,-0.121582,0.735168
1481274135897824,-0.109924,-0.656555,-0.122559,0.736084
1481274135919901,-0.109863,-0.654785,-0.124023,0.737427
1481274135942896,-0.110229,-0.652771,-0.125732,0.738892
1481274135960833,-0.110657,-0.65094,-0.126526,0.740295
1481274135979838,-0.110413,-0.649902,-0.125977,0.741333
1481274136002664,-0.109802,-0.649231,-0.125122,0.742188
1481274136017676,-0.109314,-0.648865,-0.125183,0.742554
1481274136048601,-0.109741,-0.649048,-0.125488,0.74231
1481274136062674,-0.110474,-0.649536,-0.125305,0.74176
1481274136077670,-0.110962,-0.649902,-0.125,0.741394
1481274136107809,-0.111511,-0.650146,-0.124451,0.741211
1481274136122810,-0.112244,-0.650208,-0.123718,0.74115
1481274136140741,-0.113098,-0.650085,-0.122803,0.741333
1481274136161742,-0.113953,-0.649719,-0.12207,0.741638
1481274136182745,-0.114807,-0.649414,-0.121399,0.741882
1481274136197753,-0.115723,-0.649109,-0.120483,0.742126
1481274136220262,-0.116211,-0.648804,-0.11969,0.742432
1481274136251304,-0.116699,-0.648438,-0.119324,0.742737
1481274136257333,-0.117554,-0.648071,-0.119202,0.74292
1481274136280347,-0.118286,-0.647888,-0.119263,0.742981
1481274136311015,-0.118591,-0.647644,-0.11908,0.743164
1481274136326016,-0.118591,-0.647339,-0.118774,0.743469
1481274136340025,-0.118713,-0.646851,-0.118958,0.743835
1481274136362947,-0.118896,-0.646301,-0.119263,0.744263
1481274136385954,-0.118958,-0.645569,-0.119324,0.744873
1481274136400469,-0.118896,-0.644653,-0.119141,0.745728
1481274136422534,-0.119202,-0.643311,-0.119202,0.746826
1481274136440465,-0.119751,-0.641602,-0.119873,0.748047
1481274136460546,-0.120178,-0.639648,-0.120361,0.749573
1481274136491546,-0.119629,-0.637573,-0.120605,0.751465
1481274136497547,-0.118958,-0.635315,-0.121033,0.753357
1481274136520327,-0.118652,-0.632996,-0.121704,0.75531
1481274136550234,-0.118469,-0.630249,-0.122131,0.757507
1481274136565237,-0.117859,-0.627197,-0.122314,0.760071
1481274136580319,-0.117126,-0.623779,-0.122253,0.763062
1481274136604352,-0.116333,-0.619568,-0.121948,0.766663
1481274136625371,-0.115601,-0.614258,-0.122009,0.770996
1481274136640426,-0.115234,-0.608643,-0.122559,0.775452
1481274136664355,-0.114502,-0.603149,-0.122925,0.779724
1481274136685936,-0.113342,-0.59729,-0.122925,0.784424
1481274136700441,-0.111755,-0.591248,-0.122864,0.789185
1481274136722552,-0.110107,-0.585144,-0.123169,0.793945
1481274136753574,-0.108459,-0.579224,-0.123779,0.798401
1481274136768507,-0.106934,-0.572937,-0.124634,0.802979
1481274136782510,-0.105347,-0.565735,-0.12561,0.808105
1481274136804641,-0.103882,-0.558105,-0.126892,0.813416
1481274136828576,-0.101929,-0.550415,-0.127869,0.818726
1481274136843592,-0.0993042,-0.542603,-0.128723,0.824097
1481274136864659,-0.0966797,-0.53418,-0.129761,0.829773
1481274136882576,-0.0944214,-0.52533,-0.131287,0.835388
1481274136902813,-0.0924683,-0.516541,-0.13385,0.840637
1481274136924815,-0.0903931,-0.508118,-0.136536,0.845581
1481274136942711,-0.0879517,-0.49939,-0.138672,0.850708
1481274136962712,-0.085083,-0.490173,-0.140869,0.855957
1481274136994291,-0.0818481,-0.48114,-0.14386,0.86084
1481274137000792,-0.0785522,-0.472229,-0.146973,0.86554
1481274137022265,-0.0759277,-0.462341,-0.149902,0.870667
1481274137046217,-0.072998,-0.451416,-0.152527,0.87616
1481274137060286,-0.0702515,-0.439392,-0.155457,0.881958
1481274137082216,-0.0687256,-0.426208,-0.15863,0.887939
1481274137107785,-0.0673218,-0.41217,-0.161804,0.894104
1481274137122791,-0.0657959,-0.397522,-0.164246,0.90033
1481274137150790,-0.0627441,-0.383301,-0.166321,0.906311
1481274137164792,-0.059021,-0.370056,-0.168396,0.911682
1481274137179874,-0.0557861,-0.3573,-0.171082,0.916443
1481274137202373,-0.0548096,-0.344788,-0.174622,0.920654
1481274137225380,-0.0552368,-0.332397,-0.178345,0.924438
1481274137240378,-0.0546875,-0.320557,-0.181458,0.928101
1481274137270379,-0.0531006,-0.309021,-0.184143,0.931519
1481274137285451,-0.0509644,-0.298035,-0.187134,0.934631
1481274137300467,-0.0488281,-0.287903,-0.190186,0.937317
1481274137322472,-0.0467529,-0.278015,-0.193176,0.939758
1481274137345473,-0.0446777,-0.267395,-0.195801,0.942383
1481274137360490,-0.0432739,-0.255981,-0.198669,0.945068
1481274137382474,-0.0419922,-0.244202,-0.20166,0.947571
1481274137405156,-0.0403442,-0.232117,-0.204285,0.950134
1481274137420171,-0.0389404,-0.219604,-0.206848,0.952576
1481274137442150,-0.038147,-0.206421,-0.209351,0.955017
1481274137473160,-0.0383301,-0.191956,-0.211487,0.957581
1481274137481091,-0.0394287,-0.176025,-0.213318,0.960144
1481274137510283,-0.0411377,-0.158447,-0.214539,0.962891
1481274137525185,-0.0432739,-0.140137,-0.215271,0.965454
1481274137549185,-0.0447998,-0.121948,-0.216064,0.967651
1481274137562259,-0.0458374,-0.104187,-0.216797,0.969543
1481274137585186,-0.0473022,-0.086792,-0.217651,0.971008
1481274137601196,-0.0492554,-0.069458,-0.218933,0.971985
1481274137622236,-0.0514526,-0.0524292,-0.220093,0.972656
1481274137645242,-0.053833,-0.0361328,-0.221252,0.973022
1481274137663226,-0.055481,-0.0206299,-0.222229,0.973145
1481274137682227,-0.0568848,-0.00628662,-0.22345,0.973022
1481274137713328,-0.0581665,0.0067749,-0.224792,0.972595
1481274137721331,-0.0587158,0.0185547,-0.226257,0.972107
1481274137742408,-0.0593872,0.0291748,-0.2276,0.971497
1481274137773408,-0.0609741,0.0385132,-0.229248,0.970703
1481274137781336,-0.0626221,0.0469971,-0.231384,0.969666
1481274137802536,-0.0633545,0.0551147,-0.233459,0.968689
1481274137825469,-0.0631104,0.062439,-0.235657,0.967773
1481274137841468,-0.0621948,0.0682983,-0.238159,0.966797
1481274137862539,-0.0619507,0.0728149,-0.240784,0.96582
1481274137885470,-0.0623169,0.076416,-0.24353,0.964844
1481274137907974,-0.0623779,0.0794067,-0.246338,0.963867
1481274137922975,-0.0617676,0.0822754,-0.249146,0.962952
1481274137945045,-0.0617676,0.0855713,-0.251648,0.962036
1481274137967953,-0.0615234,0.0887451,-0.253967,0.961121
1481274137991034,-0.0604858,0.0913696,-0.256104,0.960388
1481274138005562,-0.0601807,0.0938721,-0.258057,0.959656
1481274138027631,-0.0610962,0.0961304,-0.259766,0.958923
1481274138050582,-0.0615845,0.0974121,-0.261597,0.958252
1481274138064564,-0.0610962,0.0976563,-0.263306,0.957764
1481274138081561,-0.0604248,0.0971069,-0.264709,0.95752
1481274138105682,-0.0596313,0.0957031,-0.26593,0.957336
1481274138126683,-0.0584717,0.0935669,-0.267212,0.957275
1481274138141685,-0.0577393,0.0914307,-0.26825,0.957214
1481274138162754,-0.0577393,0.0894165,-0.268982,0.957214
1481274138184714,-0.0582886,0.0878296,-0.26947,0.957214
1481274138201697,-0.05896,0.0866699,-0.269836,0.957153
1481274138222206,-0.0596313,0.0858154,-0.269897,0.957153
1481274138245204,-0.0599365,0.085144,-0.269653,0.957275
1481274138269207,-0.0600586,0.0845337,-0.269226,0.957458
1481274138282208,-0.0606689,0.0840454,-0.268799,0.957581
1481274138304857,-0.0614014,0.0834961,-0.268616,0.957642
1481274138327820,-0.0618286,0.0828857,-0.268555,0.957703
1481274138342887,-0.0621338,0.0823975,-0.268677,0.957642
1481274138364825,-0.0623779,0.0820313,-0.26886,0.957642
1481274138387912,-0.0620728,0.0813599,-0.269165,0.957642
1481274138402941,-0.0615234,0.0805054,-0.26947,0.957642
1481274138434935,-0.0611572,0.0797729,-0.269714,0.957642
1481274138447939,-0.0610352,0.0793457,-0.269836,0.957642
1481274138463936,-0.0618896,0.0788574,-0.269897,0.957642
1481274138493518,-0.062561,0.0780029,-0.270081,0.957642
1481274138509049,-0.0629883,0.0772705,-0.270142,0.957642
1481274138524049,-0.0635986,0.0762939,-0.270325,0.957581
1481274138546117,-0.0638428,0.0750732,-0.27063,0.957581
1481274138567053,-0.0635986,0.0738525,-0.270996,0.957581
1481274138584053,-0.0637207,0.0730591,-0.271423,0.95752
1481274138605159,-0.06427,0.0725098,-0.271851,0.957397
1481274138628159,-0.0641479,0.0718384,-0.272156,0.957397
1481274138644158,-0.0637207,0.071228,-0.272339,0.957397
1481274138665159,-0.0638428,0.0708618,-0.272522,0.957397
1481274138696760,-0.0643311,0.0708618,-0.272644,0.957336
1481274138711295,-0.0643921,0.0708618,-0.272644,0.957336
1481274138725362,-0.0640259,0.0705566,-0.272644,0.957336
1481274138747295,-0.0637207,0.0703125,-0.272766,0.957397
1481274138771293,-0.0635986,0.0698242,-0.272888,0.957397
1481274138785297,-0.0629272,0.0690918,-0.27301,0.957458
1481274138807815,-0.062439,0.0683594,-0.27301,0.95752
1481274138825816,-0.0619507,0.067627,-0.273071,0.957581
1481274138844818,-0.0616455,0.0672607,-0.273193,0.957581
1481274138867818,-0.0617065,0.0671997,-0.273499,0.95752
1481274138885818,-0.0612183,0.0672607,-0.273743,0.957458
1481274138904922,-0.0603638,0.0673828,-0.273926,0.957458
1481274138927844,-0.0596313,0.067627,-0.274109,0.957458
1481274138943843,-0.0593262,0.0679932,-0.274353,0.957397
1481274138964845,-0.0593262,0.0681763,-0.274597,0.957275
1481274138989351,-0.059021,0.0683594,-0.274902,0.957214
1481274139003812,-0.0585938,0.0685425,-0.275208,0.957153
1481274139024814,-0.0580444,0.0684204,-0.275513,0.957092
1481274139048814,-0.0574341,0.0683594,-0.275818,0.957031
1481274139063817,-0.0568848,0.0682373,-0.276062,0.957031
1481274139086815,-0.0566406,0.0681763,-0.276245,0.95697
1481274139107705,-0.0566406,0.0681152,-0.276245,0.95697
1481274139123695,-0.0565796,0.0681152,-0.276245,0.95697
1481274139144758,-0.0565796,0.0681763,-0.276245,0.95697
1481274139167688,-0.0565796,0.0678711,-0.276062,0.957031
1481274139183688,-0.0568237,0.067627,-0.275879,0.957092
1481274139213599,-0.0571289,0.0674438,-0.275757,0.957153
1481274139227668,-0.057373,0.0672607,-0.275574,0.957214
1481274139243600,-0.0576782,0.0670166,-0.27533,0.957275
1481274139268600,-0.0581055,0.0668335,-0.275208,0.957275
1481274139289198,-0.0584717,0.0666504,-0.275085,0.957275
1481274139303708,-0.0588379,0.0664673,-0.275024,0.957336
1481274139327708,-0.059082,0.0661621,-0.275024,0.957336
1481274139347709,-0.0594482,0.065979,-0.275024,0.957275
1481274139363709,-0.0599365,0.06604,-0.275085,0.957275
1481274139386711,-0.0599365,0.06604,-0.275085,0.957275
1481274139407259,-0.0599365,0.06604,-0.275085,0.957275
1481274139438259,-0.0605469,0.0662231,-0.275146,0.957153
1481274139446260,-0.0610352,0.0664063,-0.275269,0.957092
1481274139467261,-0.0612183,0.0664673,-0.275513,0.957031
1481274139491845,-0.0612183,0.0663452,-0.275757,0.95697
1481274139506406,-0.0612793,0.06604,-0.276062,0.956909
1481274139527478,-0.0612793,0.0657959,-0.276428,0.956787
1481274139545409,-0.0612183,0.0656128,-0.276672,0.956726
1481274139566410,-0.0613403,0.0654297,-0.276855,0.956726
1481274139587992,-0.0616455,0.0652466,-0.277039,0.956665
1481274139603723,-0.0619507,0.0651245,-0.277222,0.956543
1481274139626710,-0.0617676,0.0650024,-0.277466,0.956543
1481274139647712,-0.0617065,0.0648193,-0.277649,0.956482
1481274139663759,-0.0617065,0.0647583,-0.277893,0.956421
1481274139686713,-0.0618896,0.0646973,-0.278076,0.95636
1481274139716234,-0.0619507,0.0647583,-0.278259,0.956299
1481274139724229,-0.0619507,0.0647583,-0.278259,0.956299
1481274139746267,-0.0619507,0.0647583,-0.278259,0.956299
1481274139767231,-0.0620728,0.0649414,-0.27832,0.956238
1481274139784232,-0.0625,0.0650024,-0.278503,0.956177
1481274139821112,-0.0625,0.0650635,-0.278503,0.956177
1481274139827103,-0.0625,0.0650024,-0.278503,0.956177
1481274139844032,-0.0626831,0.0650635,-0.278564,0.956116
1481274139873047,-0.0630493,0.0650024,-0.278687,0.956055
1481274139896046,-0.0631714,0.0648193,-0.27887,0.956055
