timestamp,x,y,z
1481309332361039,-0.289551,0.301758,0.931641
1481309332384042,-0.297363,0.300293,0.932617
1481309332399060,-0.307617,0.295898,0.924805
1481309332421078,-0.302734,0.29248,0.928223
1481309332435581,-0.294922,0.300293,0.926758
1481309332460583,-0.297852,0.300293,0.917969
1481309332481086,-0.301758,0.295898,0.923828
1481309332495094,-0.29541,0.29834,0.921387
1481309332547097,-0.29541,0.291504,0.918945
1481309332547097,-0.29834,0.296875,0.914063
1481309332561098,-0.294434,0.295898,0.918457
1481309332577101,-0.297363,0.293457,0.918945
1481309332600116,-0.296875,0.300293,0.915039
1481309332621118,-0.295898,0.293945,0.915039
1481309332637119,-0.297363,0.297363,0.919922
1481309332660121,-0.29248,0.29248,0.91748
1481309332681129,-0.293945,0.297363,0.914063
1481309332697135,-0.294434,0.29541,0.914551
1481309332720137,-0.288574,0.306152,0.919922
1481309332741139,-0.293945,0.303711,0.918457
1481309332757141,-0.305664,0.292969,0.912598
1481309332780149,-0.301758,0.283203,0.910156
1481309332801159,-0.29541,0.288574,0.912598
1481309332817161,-0.314941,0.280273,0.911621
1481309332840164,-0.296875,0.279297,0.914551
1481309332861164,-0.283691,0.275879,0.910645
1481309332877163,-0.280273,0.295898,0.911621
1481309332899766,-0.291992,0.306641,0.918945
1481309332920806,-0.296387,0.302734,0.919434
1481309332938736,-0.296875,0.287598,0.924316
1481309332959750,-0.298828,0.296387,0.921875
1481309332981270,-0.306152,0.311035,0.931152
1481309332997859,-0.299805,0.310547,0.928223
1481309333019863,-0.304688,0.308105,0.929199
1481309333042863,-0.310059,0.304199,0.925293
1481309333057863,-0.297363,0.297363,0.92334
1481309333080444,-0.287109,0.300293,0.915527
1481309333102339,-0.283203,0.316895,0.918457
1481309333117240,-0.293457,0.32666,0.93457
1481309333140238,-0.295898,0.341797,0.930176
1481309333162241,-0.303711,0.316895,0.918945
1481309333177240,-0.305664,0.306152,0.918945
1481309333199762,-0.314453,0.325195,0.931152
1481309333221845,-0.315918,0.330566,0.929199
1481309333236758,-0.312988,0.325684,0.936523
1481309333259765,-0.318848,0.306641,0.927734
1481309333281781,-0.311523,0.303223,0.929199
1481309333297411,-0.291992,0.323242,0.929199
1481309333319482,-0.29248,0.324707,0.915527
1481309333341413,-0.29541,0.316895,0.956543
1481309333357414,-0.291992,0.276367,0.989258
1481309333379517,-0.278809,0.291016,1.00391
1481309333401727,-0.282715,0.317871,1.01367
1481309333416729,-0.280762,0.33252,1.05615
1481309333439730,-0.274414,0.318359,1.06396
1481309333461732,-0.274414,0.324219,1.10156
1481309333475735,-0.278809,0.303223,1.11279
1481309333499265,-0.271973,0.287598,1.11768
1481309333522266,-0.262207,0.34375,1.09277
1481309333536268,-0.275391,0.376465,1.08008
1481309333558268,-0.267578,0.371094,1.05518
1481309333582293,-0.273438,0.342773,1.03955
1481309333596285,-0.233398,0.330566,1.03955
1481309333618286,-0.205566,0.359863,1.021
1481309333642288,-0.208008,0.384766,1.01123
1481309333656289,-0.212402,0.338379,1
1481309333678290,-0.17334,0.288574,0.97998
1481309333702305,-0.138672,0.296387,0.970215
1481309333716305,-0.097168,0.341797,0.932129
1481309333738306,-0.074707,0.379883,0.904785
1481309333762307,-0.0532227,0.366211,0.913574
1481309333776308,-0.0141602,0.326172,0.910645
1481309333798817,0.0205078,0.321289,0.905273
1481309333821820,0.0751953,0.352051,0.879395
1481309333836322,0.125,0.386719,0.858398
1481309333858853,0.151855,0.396484,0.847656
1481309333882328,0.188477,0.384277,0.82666
1481309333896330,0.218262,0.357422,0.805176
1481309333918833,0.250488,0.350098,0.789063
1481309333942335,0.314453,0.338867,0.770996
1481309333956337,0.391113,0.348633,0.768066
1481309333979341,0.41748,0.375,0.755859
1481309334002343,0.430176,0.333984,0.742676
1481309334016345,0.48291,0.289551,0.72998
1481309334038849,0.563965,0.280273,0.71582
1481309334061850,0.649414,0.254883,0.672363
1481309334084854,0.65918,0.234863,0.640137
1481309334098855,0.651855,0.20166,0.604492
1481309334121358,0.703125,0.187012,0.554688
1481309334136363,0.730957,0.134766,0.49707
1481309334158863,0.746582,0.0849609,0.442383
1481309334181367,0.767578,0.0610352,0.406738
1481309334204369,0.805664,0.0576172,0.361328
1481309334218870,0.825195,0.0244141,0.337891
1481309334241373,0.833984,-0.0336914,0.287598
1481309334264376,0.880859,-0.0961914,0.253906
1481309334278879,0.919434,-0.111328,0.216797
1481309334301381,0.910645,-0.118652,0.200195
1481309334324884,0.902832,-0.15625,0.171387
1481309334338886,0.912598,-0.177734,0.155762
1481309334362888,0.906738,-0.201172,0.121582
1481309334384392,0.937012,-0.233887,0.104004
1481309334407395,1.01904,-0.317871,0.0507813
1481309334421396,1.06494,-0.358398,0.0415039
1481309334444900,1.07764,-0.351074,0.0166016
1481309334458901,1.0752,-0.378418,-0.0151367
1481309334481405,1.11377,-0.427734,-0.0229492
1481309334504407,1.14014,-0.492676,-0.0327148
1481309334518908,1.11035,-0.545898,-0.0517578
1481309334540917,1.12646,-0.616699,-0.034668
1481309334563919,1.11816,-0.621094,-0.0375977
1481309334578920,1.00098,-0.548828,-0.0297852
1481309334600921,0.895996,-0.520508,-0.0410156
1481309334624435,0.855957,-0.5625,0.00146484
1481309334647022,0.77002,-0.599609,0.0820313
1481309334660944,0.619141,-0.675293,0.131836
1481309334683946,0.518555,-0.749512,0.143555
1481309334698945,0.576172,-0.698242,0.165527
1481309334724452,0.569824,-0.69043,0.145508
1481309334752932,0.505371,-0.680664,0.197266
1481309334758932,0.412598,-0.658203,0.244141
1481309334780932,0.366211,-0.643066,0.271484
1481309334803934,0.399414,-0.650391,0.290527
1481309334818935,0.424805,-0.660156,0.307617
1481309334849948,0.342285,-0.65625,0.349609
1481309334863949,0.287598,-0.625977,0.390625
1481309334879950,0.341797,-0.599609,0.36084
1481309334900951,0.362793,-0.602539,0.351074
1481309334924459,0.269531,-0.624512,0.416504
1481309334939043,0.126953,-0.589844,0.455566
1481309334960970,0.123535,-0.623535,0.458984
1481309334983970,0.108398,-0.662598,0.441895
1481309334998972,-0.0361328,-0.593262,0.445801
1481309335021548,-0.129395,-0.541992,0.449707
1481309335044078,-0.166992,-0.541504,0.461914
1481309335059058,-0.251465,-0.539063,0.501465
1481309335082060,-0.391602,-0.507324,0.553223
1481309335104128,-0.436035,-0.455566,0.560547
1481309335119109,-0.388672,-0.382324,0.529297
1481309335141591,-0.432617,-0.411133,0.584473
1481309335164661,-0.501953,-0.347168,0.607422
1481309335178592,-0.527832,-0.30127,0.606445
1481309335201601,-0.484375,-0.233398,0.594238
1481309335224674,-0.573242,-0.154785,0.657227
1481309335239179,-0.726563,-0.0839844,0.714355
1481309335261234,-0.761719,-0.109375,0.734375
1481309335284184,-0.721191,-0.0952148,0.691895
1481309335298181,-0.831543,-0.0322266,0.663574
1481309335321688,-1.02295,0.0444336,0.723633
1481309335343933,-1.07666,0.0380859,0.728027
1481309335359015,-1.07324,0.0756836,0.616211
1481309335381029,-1.14697,0.0849609,0.473145
1481309335404013,-1.24854,0.106934,0.371094
1481309335418937,-1.34131,0.12793,0.397949
1481309335441452,-1.3916,0.210449,0.378906
1481309335463452,-1.35596,0.247559,0.316895
1481309335478454,-1.13916,0.123535,0.331055
1481309335501455,-1.35303,0.0605469,0.0566406
1481309335523962,-1.14258,0.119629,0.556152
1481309335539090,-1.10498,0.34082,0.14209
1481309335561038,-1.31689,0.23584,-0.0952148
1481309335584021,-1.11572,-0.00244141,0.32959
1481309335599020,-1.28467,-0.0546875,0.217285
1481309335621600,-1.37451,-0.074707,0.19043
1481309335644126,-1.4126,-0.0795898,0.196289
1481309335659162,-1.33301,-0.144043,0.234375
1481309335681129,-1.28711,-0.214355,0.229492
1481309335712128,-1.34229,-0.313965,0.213379
1481309335719134,-1.32764,-0.352539,0.194336
1481309335741296,-1.18848,-0.424805,0.220703
1481309335763297,-1.10352,-0.444336,0.213867
1481309335778296,-1.17041,-0.508301,0.232422
1481309335801302,-1.16699,-0.617676,0.250488
1481309335823890,-1.07471,-0.674316,0.230469
1481309335838731,-0.931641,-0.722656,0.272461
1481309335861665,-0.918945,-0.700684,0.230469
1481309335883732,-0.969238,-0.663086,0.20166
1481309335898735,-0.798828,-0.725098,0.294922
1481309335921745,-0.652344,-0.835938,0.366699
1481309335943336,-0.742188,-0.953613,0.382324
1481309335958342,-0.658691,-0.953613,0.402344
1481309335981409,-0.491211,-0.766602,0.348145
1481309336003410,-0.48877,-0.826172,0.451172
1481309336018340,-0.50293,-1.00586,0.522949
1481309336040855,-0.382813,-1.00781,0.538574
1481309336064088,-0.341309,-0.769043,0.547363
1481309336078857,-0.354004,-0.677734,0.620117
1481309336100928,-0.24707,-0.652832,0.701172
1481309336123970,-0.101074,-0.513672,0.746582
1481309336138647,-0.124023,-0.430176,0.745117
1481309336161580,-0.074707,-0.294434,0.775879
1481309336183581,0.0488281,-0.0571289,0.774902
1481309336200581,0.0966797,0.0766602,0.782227
1481309336221593,0.134766,0.143555,0.76123
1481309336243677,0.158691,0.215332,0.822266
1481309336267676,0.187988,0.236816,0.774414
1481309336281678,0.261719,0.262695,0.724609
1481309336303749,0.289551,0.255859,0.746094
1481309336326260,0.321777,0.289063,0.745605
1481309336340854,0.361816,0.324219,0.702637
1481309336363855,0.395996,0.333496,0.694824
1481309336387787,0.460449,0.350586,0.697754
1481309336401789,0.468262,0.395508,0.654785
1481309336423868,0.457031,0.339355,0.684082
1481309336445968,0.528809,0.324219,0.65625
1481309336460899,0.550293,0.32373,0.627441
1481309336483914,0.546387,0.316895,0.620605
1481309336505902,0.57373,0.268066,0.619629
1481309336520902,0.632324,0.227051,0.600098
1481309336545422,0.614746,0.182129,0.605469
1481309336566423,0.631348,0.124023,0.570313
1481309336581424,0.646484,0.0551758,0.521484
1481309336603425,0.672852,-0.00537109,0.511719
1481309336626432,0.689941,-0.0107422,0.512207
1481309336641439,0.719238,-0.0351563,0.484375
1481309336663439,0.6875,-0.174316,0.444824
1481309336686524,0.637207,-0.280273,0.411621
1481309336701515,0.597656,-0.353516,0.383789
1481309336724024,0.587402,-0.308594,0.352051
1481309336748044,0.566895,-0.302734,0.312012
1481309336761044,0.5,-0.352051,0.271973
1481309336784091,0.400391,-0.424805,0.300293
1481309336806118,0.414551,-0.452637,0.303711
1481309336824141,0.523926,-0.453125,0.223145
1481309336844219,0.564941,-0.45752,0.20752
1481309336866221,0.428711,-0.46875,0.427734
1481309336882236,0.253906,-0.407227,0.499023
1481309336904223,0.266602,-0.413574,0.506348
1481309336926303,0.205566,-0.516602,0.540039
1481309336941413,-0.0332031,-0.62207,0.648438
1481309336963412,-0.0517578,-0.46582,0.676758
1481309336986484,-0.0214844,-0.296875,0.62207
1481309337001486,-0.188477,-0.372559,0.612793
1481309337025496,-0.38623,-0.399902,0.855957
1481309337047516,-0.342285,-0.21875,0.958496
1481309337061518,-0.333496,-0.0810547,0.92041
1481309337083589,-0.472168,-0.174805,0.794922
1481309337106586,-0.524414,-0.163086,0.758301
1481309337121548,-0.491211,0.0195313,0.833984
1481309337143591,-0.611328,0.251465,0.76709
1481309337166619,-0.740723,0.185059,0.720215
1481309337182592,-0.724121,0.131836,0.680176
1481309337203667,-0.666504,0.316895,0.608398
1481309337226600,-0.70752,0.469238,0.62793
1481309337243108,-0.760742,0.424805,0.594727
1481309337264113,-0.75,0.378418,0.656738
1481309337286186,-0.84082,0.569336,0.682617
1481309337303110,-0.92627,0.647949,0.635254
1481309337332192,-0.953613,0.484375,0.596191
1481309337346763,-0.905273,0.41748,0.583984
1481309337362713,-1.0708,0.629395,0.51709
1481309337383717,-1.3457,0.648926,0.51709
1481309337407718,-1.20703,0.380371,0.600098
1481309337422716,-1.1084,0.321777,0.540039
1481309337444059,-1.19824,0.388184,0.533691
1481309337468981,-1.32471,0.317871,0.697754
1481309337483982,-1.39404,0.237793,0.369141
1481309337504057,-1.46484,-0.0170898,0.500488
1481309337526571,-1.43164,-0.0566406,0.746582
1481309337542945,-1.47803,0.050293,0.626465
1481309337564024,-1.47754,-0.0825195,0.558105
1481309337586016,-1.36963,-0.182617,0.571289
1481309337602946,-1.39795,-0.193359,0.533691
1481309337624027,-1.44043,-0.26123,0.525391
1481309337654775,-1.36133,-0.410645,0.591309
1481309337662770,-1.29639,-0.43457,0.577637
1481309337683843,-1.29492,-0.577148,0.600098
1481309337706776,-1.20313,-0.580566,0.628906
1481309337722852,-1.15918,-0.444336,0.543457
1481309337743739,-1.08594,-0.518066,0.602051
1481309337766740,-1.01855,-0.560547,0.658691
1481309337782738,-0.96582,-0.688477,0.652344
1481309337803811,-0.912109,-0.577148,0.624512
1481309337826319,-0.804688,-0.293945,0.623047
1481309337843410,-0.712402,-0.260742,0.723633
1481309337863405,-0.602539,-0.134277,0.746094
1481309337887410,-0.589844,-0.192383,0.782227
1481309337902441,-0.556641,-0.0683594,0.686523
1481309337923917,-0.464355,0.193848,0.679199
1481309337946530,-0.329102,0.486816,0.681641
1481309337962436,-0.234375,0.57959,0.652344
1481309337983488,-0.211426,0.519043,0.620605
1481309338006510,-0.130371,0.49707,0.62793
1481309338030448,-0.0678711,0.580078,0.617188
1481309338051842,-0.0131836,0.632324,0.605957
1481309338065844,0.0366211,0.620605,0.581543
1481309338082773,0.0932617,0.605957,0.587891
1481309338111803,0.149414,0.597656,0.562012
1481309338126295,0.204102,0.646484,0.54541
1481309338142862,0.240723,0.669434,0.539551
1481309338164863,0.298828,0.606445,0.547363
1481309338185863,0.368652,0.54834,0.536621
1481309338209867,0.422852,0.547852,0.505371
1481309338225449,0.456543,0.546875,0.501953
1481309338245957,0.467285,0.525879,0.526367
1481309338262957,0.484863,0.477539,0.523926
1481309338284959,0.526367,0.431641,0.52832
1481309338306033,0.557129,0.359375,0.501953
1481309338328969,0.540039,0.268066,0.527832
1481309338345530,0.515625,0.170898,0.539063
1481309338366603,0.565918,0.0732422,0.578125
1481309338388552,0.617188,-0.0366211,0.583984
1481309338405533,0.687012,-0.20459,0.602539
1481309338426615,0.706543,-0.291016,0.608887
1481309338449120,0.674316,-0.263672,0.615723
1481309338471121,0.626953,-0.241699,0.626465
1481309338486122,0.577637,-0.287109,0.652344
1481309338525740,0.611328,-0.323242,0.663574
1481309338528240,0.671875,-0.272949,0.660156
1481309338546871,0.70166,-0.246094,0.650879
1481309338568942,0.713379,-0.265137,0.663574
1481309338584875,0.683594,-0.271973,0.680176
1481309338608872,0.668945,-0.248535,0.684082
1481309338628885,0.70752,-0.205566,0.659668
1481309338645040,0.686523,-0.164063,0.643066
1481309338666112,0.651855,-0.186523,0.645508
1481309338689044,0.704102,-0.1875,0.65918
1481309338705045,0.712402,-0.183105,0.668457
1481309338729124,0.660156,-0.172363,0.673828
1481309338749147,0.664551,-0.164063,0.685547
1481309338766147,0.724609,-0.143066,0.69043
1481309338786219,0.746582,-0.180176,0.683594
1481309338802150,0.712891,-0.215332,0.692871
1481309338825229,0.726074,-0.230469,0.697266
1481309338846321,0.75293,-0.220703,0.703613
1481309338869256,0.739258,-0.220703,0.699707
1481309338885254,0.714355,-0.223145,0.708984
1481309338914256,0.729492,-0.246094,0.71875
1481309338928834,0.77002,-0.286133,0.723145
1481309338945471,0.737793,-0.312988,0.708496
1481309338966486,0.711426,-0.356934,0.69873
1481309338988542,0.771484,-0.370117,0.703125
1481309339005475,0.78418,-0.350098,0.706543
1481309339028053,0.659668,-0.30957,0.665039
1481309339048577,0.557129,-0.323242,0.658203
1481309339065575,0.629395,-0.306152,0.638184
1481309339087579,0.640625,-0.192871,0.597656
1481309339108578,0.578613,-0.116211,0.543945
1481309339125585,0.544434,-0.123047,0.545898
1481309339147607,0.522461,-0.13916,0.528809
1481309339168680,0.533691,-0.0615234,0.512207
1481309339185609,0.51416,0.0595703,0.503418
1481309339207611,0.510254,0.123047,0.493164
1481309339229120,0.445801,0.135742,0.496094
1481309339244777,0.432617,0.114746,0.539551
1481309339267776,0.421875,0.150879,0.55957
1481309339288846,0.37207,0.115723,0.599121
1481309339304808,0.330078,0.154785,0.617676
1481309339327787,0.281738,0.231934,0.668457
1481309339357875,0.208008,0.218262,0.659668
1481309339364875,0.120605,0.0200195,0.679199
1481309339387874,0.0581055,-0.132813,0.740234
1481309339408875,0.0253906,-0.144531,0.781738
1481309339425385,-0.0405273,-0.118164,0.740723
1481309339447956,-0.129883,-0.149414,0.724609
1481309339469027,-0.194336,-0.231445,0.741211
1481309339484958,-0.300781,-0.337891,0.766113
1481309339507959,-0.360352,-0.413574,0.720215
1481309339528970,-0.372559,-0.460449,0.703125
1481309339545043,-0.453125,-0.416992,0.674805
1481309339568044,-0.611328,-0.515137,0.696777
1481309339589102,-0.702148,-0.588379,0.694824
1481309339605044,-0.708008,-0.657227,0.677246
1481309339629559,-0.709961,-0.655762,0.682129
1481309339649181,-0.727539,-0.460449,0.666504
1481309339665106,-0.958008,-0.47168,0.598633
1481309339688108,-1.08203,-0.566895,0.599609
1481309339709110,-1.01563,-0.502441,0.591797
1481309339725241,-1.09717,-0.274414,0.556641
1481309339747360,-1.31641,-0.331543,0.550781
1481309339768361,-1.32373,-0.320801,0.614258
1481309339785367,-1.07227,-0.316895,0.672363
1481309339807366,-1.17773,-0.262207,0.869141
1481309339828872,-1.43408,0.00683594,0.254883
1481309339844879,-1.74268,-0.0585938,0.558594
1481309339867882,-1.51611,0.0488281,0.960449
1481309339888884,-1.4248,0.266602,0.599609
1481309339904884,-1.51465,0.285645,0.588867
1481309339927898,-1.36426,0.321289,0.61084
1481309339948666,-1.27637,0.325195,0.609375
1481309339964668,-1.29443,0.364258,0.678711
1481309339987669,-1.23096,0.470215,0.671875
1481309340009672,-1.12598,0.54834,0.684082
1481309340031683,-1.04199,0.539551,0.73584
1481309340047895,-0.922852,0.510254,0.724609
1481309340069897,-0.875,0.654297,0.845215
1481309340091017,-0.854004,0.660156,0.875
1481309340107903,-0.770508,0.57373,0.929199
1481309340130410,-0.674805,0.502441,0.943848
1481309340151489,-0.655273,0.48291,0.992676
1481309340167419,-0.609863,0.42334,1.01416
1481309340189491,-0.527344,0.333008,1.0249
1481309340211419,-0.402832,0.302734,1.02881
1481309340226929,-0.318848,0.215332,1.05322
1481309340249436,-0.271484,0.120605,1.02148
1481309340272497,-0.213379,0.0317383,1.01855
1481309340287438,-0.140625,-0.00732422,0.995605
1481309340309440,-0.0375977,-0.0678711,0.942871
1481309340331959,0.0493164,-0.0834961,0.93457
1481309340348460,0.11084,-0.11377,0.880371
1481309340369530,0.13623,-0.202637,0.805176
1481309340392461,0.206055,-0.256348,0.744141
1481309340406525,0.24707,-0.259766,0.739746
1481309340429472,0.265137,-0.284668,0.708984
1481309340452484,0.249023,-0.289551,0.688965
1481309340466550,0.230469,-0.34375,0.700195
1481309340489550,0.253418,-0.346191,0.648438
1481309340511482,0.305664,-0.328125,0.662598
1481309340526991,0.369141,-0.366211,0.638672
1481309340550498,0.394043,-0.413574,0.635742
1481309340571501,0.418945,-0.407227,0.607422
1481309340586572,0.478027,-0.382324,0.557617
1481309340609501,0.505859,-0.342285,0.519531
1481309340632010,0.498535,-0.329102,0.488281
1481309340646590,0.504883,-0.307617,0.459961
1481309340670518,0.547852,-0.286621,0.439453
1481309340700530,0.587891,-0.283203,0.442871
1481309340706522,0.590332,-0.227539,0.436523
1481309340729536,0.583496,-0.197266,0.380859
1481309340751634,0.65918,-0.17627,0.356445
1481309340766545,0.706055,-0.164551,0.379395
1481309340789544,0.682129,-0.0712891,0.39209
1481309340811548,0.636719,0.00732422,0.395508
1481309340827057,0.619141,0.065918,0.40918
1481309340857191,0.683594,0.129395,0.405762
1481309340872188,0.686523,0.173828,0.405762
1481309340887262,0.588379,0.139648,0.414063
1481309340911190,0.544922,0.152832,0.412598
1481309340932198,0.572754,0.217285,0.416504
1481309340948710,0.512695,0.229492,0.442383
1481309340969781,0.41748,0.212891,0.497559
1481309340991716,0.409668,0.161621,0.55127
1481309341006714,0.345703,0.206055,0.557129
1481309341029727,0.282227,0.220215,0.625977
1481309341051831,0.260254,0.229004,0.663086
1481309341068739,0.125488,0.0571289,0.744629
1481309341096827,0.0688477,-0.0537109,0.794922
1481309341111741,0.0610352,0.0161133,0.768555
1481309341128756,-0.0180664,0.0737305,0.811035
1481309341149765,-0.0986328,0.175781,0.884277
1481309341171765,-0.144531,0.105957,0.888184
1481309341188769,-0.184082,-0.0805664,0.819824
1481309341209767,-0.269043,-0.124512,0.733398
1481309341232279,-0.394531,-0.136719,0.85791
1481309341248785,-0.437012,-0.012207,1.01221
1481309341269804,-0.44873,-0.0893555,1.02734
1481309341291788,-0.413086,-0.206543,0.845215
1481309341314820,-0.49707,-0.28418,0.683105
1481309341337389,-0.742676,-0.331055,0.770996
1481309341351912,-0.803223,-0.351074,0.863281
1481309341374902,-0.733398,-0.405273,0.849609
1481309341389903,-0.732422,-0.450195,0.746582
1481309341413898,-0.942871,-0.443359,0.702637
1481309341428406,-1.0791,-0.433594,0.68457
1481309341449918,-1.16357,-0.338867,0.699219
1481309341471988,-1.16064,-0.331543,0.735352
1481309341488918,-1.20459,-0.314453,0.734375
1481309341509003,-1.21777,-0.272949,0.662598
1481309341531927,-1.21045,-0.254395,0.743164
1481309341554013,-1.14697,-0.149414,0.945313
1481309341568933,-1.31934,0.103516,0.429199
1481309341591934,-1.51953,0.0654297,0.934082
1481309341607937,-1.32813,0.13623,0.898438
1481309341629943,-1.22168,0.166992,0.517578
1481309341652021,-1.33154,0.104004,0.675781
1481309341667950,-1.27539,0.303711,0.733398
1481309341689956,-1.30371,0.376465,0.720215
1481309341711957,-1.23193,0.320313,0.783203
1481309341734460,-1.15479,0.330078,0.79248
1481309341748970,-1.10986,0.447754,0.74707
1481309341771970,-1.09033,0.500977,0.729004
1481309341794970,-1.01123,0.482422,0.8125
1481309341808972,-0.894043,0.474609,0.869629
1481309341831981,-0.875977,0.581543,0.884766
1481309341855035,-0.845703,0.594238,0.891602
1481309341869060,-0.736816,0.528809,0.93457
1481309341891991,-0.640137,0.436523,0.963867
1481309341915026,-0.546387,0.382324,0.935547
1481309341929502,-0.463867,0.366211,0.896973
1481309341952080,-0.434082,0.327148,0.894043
1481309341974014,-0.374023,0.251953,0.876465
1481309341991011,-0.244141,0.270996,0.852051
1481309342012053,-0.149902,0.253418,0.818848
1481309342034522,-0.0917969,0.192383,0.827148
1481309342051103,0.015625,0.131348,0.826172
1481309342072031,0.0986328,0.0952148,0.801758
1481309342094041,0.108398,0.0541992,0.818848
1481309342111032,0.133301,0.046875,0.785645
1481309342132044,0.197266,0.0576172,0.770996
1481309342155054,0.26416,0.0507813,0.722656
1481309342171053,0.321289,0.0551758,0.719727
1481309342192054,0.358398,0.00585938,0.694336
1481309342214128,0.420898,-0.0161133,0.704102
1481309342231062,0.490723,-0.00341797,0.683594
1481309342252070,0.487793,0.0180664,0.658691
1481309342274075,0.443848,0.00927734,0.628418
1481309342291072,0.498047,-0.015625,0.608887
1481309342312074,0.594727,0.0200195,0.575684
1481309342334584,0.64502,0.0410156,0.524902
1481309342351054,0.630371,0.00585938,0.493164
1481309342372126,0.663574,-0.0444336,0.503418
1481309342394075,0.717285,-0.0522461,0.494629
1481309342411060,0.736328,0.00732422,0.488281
1481309342432070,0.765625,0.0620117,0.443359
1481309342454079,0.80127,0.078125,0.419434
1481309342477080,0.825195,0.0444336,0.407715
1481309342493080,0.855469,0.03125,0.387695
1481309342514082,0.833008,0.0727539,0.390625
1481309342531089,0.837891,0.13916,0.364258
1481309342551783,0.862793,0.217285,0.349121
1481309342574714,0.859375,0.260742,0.329102
1481309342590716,0.842773,0.313965,0.327637
1481309342611716,0.854492,0.365723,0.311523
1481309342634725,0.865234,0.377441,0.287109
1481309342657919,0.840332,0.394043,0.306641
1481309342671923,0.816895,0.421387,0.288574
1481309342693919,0.810547,0.452637,0.324219
1481309342710922,0.82373,0.471191,0.310059
1481309342731959,0.808105,0.494141,0.333496
1481309342754061,0.80127,0.469727,0.349121
1481309342770994,0.823242,0.449707,0.390137
1481309342791994,0.870117,0.475098,0.405273
1481309342814996,0.872559,0.464355,0.414063
1481309342830500,0.851563,0.400879,0.412598
1481309342851508,0.866699,0.369141,0.425293
1481309342867509,0.875488,0.394043,0.423828
1481309342890511,0.850586,0.394043,0.426758
1481309342911537,0.826172,0.363281,0.425293
1481309342928021,0.802246,0.375977,0.412598
1481309342950280,0.803223,0.374512,0.393066
1481309342973281,0.828613,0.36084,0.375488
1481309342994355,0.804688,0.338379,0.38623
1481309343010282,0.812012,0.338379,0.400391
1481309343033292,0.841797,0.382324,0.371094
1481309343054807,0.783203,0.392578,0.363281
1481309343069802,0.691406,0.358398,0.428223
1481309343092872,0.713867,0.370605,0.466309
1481309343114802,0.697266,0.443848,0.459473
1481309343130321,0.552734,0.446777,0.500488
1481309343153595,0.46582,0.400879,0.585938
1481309343174597,0.493164,0.400391,0.622559
1481309343190600,0.494629,0.43457,0.604004
1481309343213600,0.405273,0.458984,0.647949
1481309343234603,0.334961,0.496582,0.725098
1481309343250114,0.282715,0.539551,0.73877
1481309343273118,0.234863,0.481934,0.76416
1481309343294185,0.203613,0.435547,0.772461
1481309343310115,0.180176,0.433105,0.81543
1481309343333688,0.161621,0.505859,0.849121
1481309343354268,0.0893555,0.543457,0.834961
1481309343370201,0.0239258,0.467773,0.841309
1481309343393201,0.0078125,0.39209,0.88916
1481309343414200,0.0161133,0.473633,0.874023
1481309343430722,-0.0605469,0.537109,0.844238
1481309343453229,-0.144531,0.474121,0.833496
1481309343474233,-0.177246,0.298828,0.942383
1481309343490232,-0.190918,0.335449,0.903809
1481309343513234,-0.30127,0.374512,0.95459
1481309343534742,-0.338379,0.297852,1.01514
1481309343550248,-0.364746,0.309082,1.04346
1481309343573251,-0.399414,0.337891,1.07373
1481309343594323,-0.36084,0.362793,1.09961
1481309343610254,-0.379395,0.395508,1.10791
1481309343633760,-0.364746,0.442383,1.09326
1481309343654337,-0.356934,0.454102,1.07764
1481309343670268,-0.344727,0.435059,1.05176
1481309343693268,-0.328125,0.420898,1.02246
1481309343714355,-0.311523,0.39502,0.989258
1481309343730359,-0.283203,0.416504,0.950684
1481309343752888,-0.285156,0.416504,0.931152
1481309343774890,-0.28418,0.418945,0.920898
1481309343789890,-0.269531,0.360352,0.92334
1481309343812889,-0.249512,0.317871,0.904785
1481309343835899,-0.256836,0.342773,0.916016
1481309343850374,-0.24707,0.355957,0.914551
1481309343873374,-0.246094,0.342285,0.924805
1481309343896377,-0.247559,0.333008,0.917969
1481309343910377,-0.251953,0.315918,0.924805
1481309343932956,-0.228027,0.31543,0.957031
1481309343955491,-0.241211,0.313965,0.940918
1481309343977466,-0.265137,0.229004,0.932617
1481309343992466,-0.239746,0.124023,0.969727
1481309344015477,-0.235352,0.115234,0.989258
1481309344036975,-0.250977,0.15625,0.973633
1481309344052484,-0.25,0.161621,0.953125
1481309344076485,-0.243164,0.0722656,0.956055
1481309344097491,-0.252441,0.0800781,0.978516
1481309344112489,-0.256348,0.0839844,0.958008
1481309344135994,-0.258301,0.0742188,0.939453
1481309344156457,-0.249023,0.138184,0.935547
1481309344172454,-0.242188,0.253418,0.926758
1481309344195460,-0.243164,0.249023,0.924316
1481309344217456,-0.236816,0.230957,0.888672
1481309344240962,-0.223633,0.298828,0.897461
1481309344255474,-0.206055,0.45166,0.899414
1481309344277471,-0.215332,0.463379,0.925781
1481309344292509,-0.192383,0.399414,0.931152
1481309344315485,-0.181152,0.407715,0.92041
1481309344337056,-0.178711,0.499512,0.917969
1481309344352565,-0.192871,0.456543,0.942383
1481309344383565,-0.185547,0.36377,0.927246
1481309344396636,-0.183105,0.347656,0.925293
1481309344412565,-0.185059,0.373047,0.933105
1481309344436167,-0.178223,0.419922,0.924316
1481309344456692,-0.196777,0.375977,0.924316
1481309344472691,-0.1875,0.291016,0.92041
1481309344495691,-0.190918,0.308105,0.928223
1481309344516764,-0.19043,0.350098,0.930176
1481309344532775,-0.191406,0.368164,0.92334
1481309344555784,-0.181641,0.367676,0.911621
1481309344576856,-0.180664,0.375,0.910645
1481309344592784,-0.186523,0.402344,0.919922
1481309344615786,-0.196289,0.337402,0.924316
1481309344637374,-0.168945,0.35498,0.936035
1481309344652881,-0.126465,0.478516,0.896973
1481309344675882,-0.172363,0.597168,0.966797
1481309344696964,-0.152832,0.665527,0.939941
1481309344712887,-0.20166,0.699707,0.890625
1481309344735436,-0.231445,0.433105,0.75293
1481309344756642,-0.241699,-0.129395,0.671875
1481309344772640,-0.1875,-0.689453,0.766113
1481309344795639,-0.16748,-1.05957,0.97168
1481309344816710,-0.274902,-0.930176,1.04834
1481309344832648,-0.314453,-0.534668,1.0332
1481309344855156,-0.357422,-0.346191,0.929688
1481309344878158,-0.314941,-0.0893555,0.862793
1481309344899228,-0.220215,0.116699,0.734375
1481309344915159,-0.110352,0.441895,0.736816
1481309344938743,0.0209961,0.854004,0.714355
1481309344959254,-0.0253906,1.13867,0.77002
1481309344975254,-0.0732422,1.04199,0.790527
1481309344998254,-0.173828,0.604004,0.876953
1481309345019327,-0.230469,0.163574,0.866211
1481309345035271,-0.223633,-0.175781,0.838867
1481309345058276,-0.250488,-0.527832,0.859863
1481309345079347,-0.233398,-0.739258,0.978516
1481309345095281,-0.28418,-0.690918,1.06006
1481309345118279,-0.311523,-0.570801,1.11133
1481309345139791,-0.257324,-0.264648,0.956543
1481309345155300,-0.177734,0.0571289,0.736816
1481309345178298,-0.0400391,0.354004,0.56543
1481309345199404,0.132324,0.924805,0.581055
1481309345215299,0.00390625,1.4126,0.553711
1481309345238811,-0.0415039,1.21484,0.714355
1481309345259321,-0.171875,0.530762,0.877441
1481309345275321,-0.168945,0.0366211,0.900391
1481309345298321,-0.220703,-0.263184,0.877441
1481309345319393,-0.291992,-0.449707,0.803223
1481309345335333,-0.300781,-0.759766,0.859863
1481309345358920,-0.270508,-0.86377,0.983398
1481309345379926,-0.287598,-0.706543,1.06592
1481309345394930,-0.342285,-0.359375,1.03906
1481309345417938,-0.276855,0.0195313,0.933594
1481309345439508,-0.215332,0.168457,0.836426
1481309345455513,-0.0776367,0.320801,0.711914
1481309345478517,0.154297,0.851074,0.687988
1481309345499612,0.0678711,1.42969,0.624023
1481309345515521,-0.0439453,1.40186,0.703125
1481309345538528,-0.262695,0.680664,0.790527
1481309345559539,-0.229492,0.0258789,0.79834
1481309345575541,-0.335449,-0.308594,0.757813
1481309345598542,-0.312988,-0.567383,0.780273
1481309345619642,-0.224121,-0.843262,0.883301
1481309345635650,-0.197266,-0.89209,0.969238
1481309345658661,-0.255371,-0.682617,0.953613
1481309345679731,-0.226074,-0.489746,0.897461
1481309345703662,-0.225586,-0.257813,0.845215
1481309345717662,-0.25293,-0.0390625,0.738281
1481309345739756,-0.20752,0.147949,0.674805
1481309345754832,-0.145508,0.315918,0.604004
1481309345777764,-0.0644531,0.503906,0.539551
1481309345800764,0.0541992,0.890137,0.45166
1481309345814839,0.090332,1.14258,0.470703
1481309345837847,0.043457,1.1875,0.431641
1481309345860855,0.0107422,1.06885,0.503418
1481309345881940,-0.0595703,0.924316,0.567871
1481309345897859,-0.0732422,0.894531,0.582031
1481309345920860,-0.117676,0.841797,0.631348
1481309345941942,-0.143066,0.757324,0.704102
1481309345957948,-0.139648,0.714844,0.745605
1481309345980949,-0.121094,0.729004,0.702637
1481309346002021,-0.097168,0.786133,0.673828
1481309346017951,-0.0844727,0.861328,0.625977
1481309346040962,-0.0839844,0.856934,0.598145
1481309346062040,-0.102539,0.745117,0.622559
1481309346077971,-0.103516,0.745117,0.64502
1481309346100975,-0.0883789,0.773438,0.646484
1481309346121979,-0.108887,0.740234,0.663086
1481309346138003,-0.113281,0.676758,0.707031
1481309346160838,-0.117188,0.666992,0.732422
1481309346181906,-0.0986328,0.707031,0.743652
1481309346197841,-0.110352,0.682129,0.776855
1481309346220842,-0.112793,0.581055,0.822754
1481309346242427,-0.124512,0.538574,0.808594
1481309346257832,-0.146973,0.545898,0.849609
1481309346280833,-0.126953,0.588867,0.833008
1481309346301903,-0.124023,0.631348,0.79834
1481309346317837,-0.146484,0.638672,0.78125
1481309346341418,-0.151367,0.632324,0.771484
1481309346361997,-0.144043,0.640625,0.77832
1481309346377929,-0.145508,0.625,0.778809
1481309346400930,-0.155762,0.589844,0.794922
1481309346421936,-0.147949,0.626953,0.799316
1481309346438045,-0.157227,0.694824,0.761719
1481309346460636,-0.182129,0.687012,0.779785
1481309346489641,-0.183105,0.633789,0.819824
1481309346497636,-0.183594,0.616699,0.805664
1481309346520639,-0.224609,0.598145,0.837891
1481309346542210,-0.230957,0.536621,0.854004
1481309346558115,-0.203613,0.538574,0.871582
1481309346581116,-0.174805,0.544922,0.896973
1481309346603125,-0.171387,0.592285,0.899902
1481309346618118,-0.198242,0.558105,0.854492
1481309346640699,-0.18457,0.503906,0.866211
1481309346661963,-0.143555,0.421387,0.831055
1481309346677897,-0.123047,0.288574,0.838379
1481309346699899,-0.112793,0.192383,0.867188
1481309346722902,-0.0732422,0.132324,0.891113
1481309346737922,-0.0683594,0.102539,0.854492
1481309346759955,-0.140625,0.00244141,0.887695
1481309346782962,-0.205078,-0.165527,0.930664
1481309346804962,-0.226563,-0.320313,0.95752
1481309346819959,-0.293945,-0.366699,0.992188
1481309346843467,-0.327637,-0.346191,0.973633
1481309346864236,-0.384766,-0.300781,0.980957
1481309346880233,-0.48877,-0.257813,1.03369
1481309346903233,-0.504883,-0.213379,1.04346
1481309346924238,-0.471191,-0.105469,1.021
1481309346940257,-0.456055,-0.0141602,1.01367
1481309346963518,-0.413086,0.0219727,1.00977
1481309346984590,-0.39209,0.0166016,1.02246
1481309347008518,-0.390625,0.0498047,1.00146
1481309347023519,-0.319824,0.0834961,0.979004
1481309347044532,-0.29248,0.114746,0.973145
1481309347060586,-0.304199,0.143066,0.975586
1481309347083591,-0.307129,0.144531,0.995605
1481309347104693,-0.266113,0.12207,0.963867
1481309347120595,-0.24707,0.102539,0.947754
1481309347143625,-0.295898,0.147949,0.922852
1481309347164131,-0.351563,0.180664,1.03125
1481309347180131,-0.21582,0.184082,0.869141
1481309347211134,0.0791016,-0.19873,0.751953
1481309347224135,-0.0913086,-0.529297,0.897461
1481309347240693,-0.19043,-0.925781,1.00586
1481309347253835,-0.192871,-0.806152,1.07178
1481309347276810,-0.319824,-0.196289,0.798828
1481309347307735,-0.303711,-0.0307617,0.843262
1481309347313735,-0.313965,-0.173828,0.990723
1481309347336769,-0.299316,-0.193359,1.0918
1481309347359141,-0.248047,-0.0791016,1.06006
1481309347374163,-0.166504,-0.078125,1.02686
1481309347396223,-0.0854492,-0.155762,1.06494
1481309347419140,-0.115723,-0.108398,0.979492
1481309347434151,-0.178223,0.237305,0.833008
1481309347456658,-0.25293,0.686523,0.683105
1481309347479737,-0.380859,0.867188,0.683105
1481309347493672,-0.458008,0.612305,0.803223
1481309347516679,-0.282227,0.0375977,0.974121
1481309347539777,-0.17334,-0.243164,0.994629
1481309347554321,-0.0786133,-0.195313,0.91748
1481309347576391,-0.0947266,-0.210449,0.720703
1481309347599414,-0.050293,-0.565918,0.842285
1481309347613338,-0.0844727,-0.71582,1.02295
1481309347636337,-0.221191,-0.533691,1.05811
1481309347659659,-0.314453,-0.321777,1.05029
1481309347673586,-0.275391,-0.244141,1.09131
1481309347696675,-0.322266,-0.14502,1.15527
1481309347719629,-0.36377,0.0175781,1.17871
1481309347734188,-0.187012,-0.0244141,1.14258
1481309347759229,-0.0917969,-0.188965,0.978516
1481309347779262,-0.0449219,0.137695,0.777832
1481309347794234,-0.0698242,0.714844,0.683105
1481309347816299,-0.396484,1.14404,0.592285
1481309347839766,-0.422852,0.862305,0.712891
1481309347854296,-0.14502,0.141602,0.84375
1481309347876323,-0.20166,-0.308594,0.978516
1481309347899369,-0.114746,-0.4375,1.04834
1481309347922307,-0.0136719,-0.228027,0.842285
1481309347936311,0.0874023,-0.383301,0.695801
1481309347959857,-0.0483398,-0.424805,0.933594
1481309347973820,-0.259277,-0.427246,1.08301
1481309347996823,-0.252441,-0.714355,1.10156
1481309348019880,-0.0893555,-0.433105,0.906738
1481309348034343,-0.153809,-0.0927734,0.963867
1481309348056516,-0.484375,0.356934,1.3125
1481309348079436,-0.325684,-0.140625,1.29395
1481309348094440,0.0375977,-0.619629,0.915039
1481309348125517,0.270996,-0.0874023,0.757813
1481309348139057,-0.125977,0.971191,0.490234
1481309348161646,-0.663086,1.46924,0.572754
1481309348176649,-0.267578,0.745605,0.850098
1481309348198660,-0.0546875,0.153809,0.917969
1481309348221581,-0.225586,-0.291504,0.861816
1481309348236589,-0.138184,-0.54834,1.11084
1481309348258879,-0.108887,-0.140137,1.29297
1481309348281879,-0.0458984,0.0820313,0.916504
1481309348295881,0.165527,-0.305664,0.713379
1481309348318885,-0.059082,-0.996094,0.825195
1481309348342324,-0.28418,-1.14746,1.07715
1481309348355853,-0.282715,-0.458984,0.973633
1481309348378853,-0.315918,0.246582,0.702148
1481309348401927,-0.397461,0.203613,1.13086
1481309348415946,-0.472168,-0.364746,1.25586
1481309348447442,-0.00634766,-0.865234,0.914063
1481309348462448,-0.0654297,-0.5,0.567383
1481309348477494,-0.109863,0.540527,0.403809
1481309348499447,-0.413086,1.24658,0.560059
1481309348522450,-0.414063,0.901855,0.742188
1481309348536455,-0.206543,0.395508,0.89502
1481309348559183,-0.254883,0.240723,0.934082
1481309348582182,-0.346191,0.218262,0.880371
1481309348596184,-0.263184,-0.059082,1.04639
1481309348619185,-0.107422,-0.208496,1.17041
1481309348642196,-0.0839844,0.341797,1.18262
1481309348656376,0.0566406,-0.566895,0.622559
1481309348678448,0.0488281,-0.642578,0.712402
1481309348702398,-0.0864258,-1.3916,1.01563
1481309348716451,-0.17041,-0.968262,1.11182
1481309348738962,-0.213867,-0.112305,0.924805
1481309348761551,-0.305176,0.440918,0.73291
1481309348776553,-0.380371,0.212891,1.11816
1481309348798583,-0.430176,0.0332031,1.5293
1481309348822486,0.0322266,-0.98291,1.0542
1481309348836563,0.105957,-0.58252,0.785645
1481309348858748,0.0439453,0.449219,0.717773
1481309348881748,-0.37793,1.26611,0.475586
1481309348896706,-0.482422,1.01514,0.623535
1481309348918750,-0.120117,0.253906,0.922852
1481309348950338,-0.15918,0.0834961,0.980957
1481309348956268,-0.320313,0.56543,0.740723
1481309348979270,-0.341309,0.472656,0.734863
1481309349002345,-0.0712891,-0.0654297,0.924805
1481309349016343,-0.0249023,0.0185547,1.18213
1481309349039352,-0.0380859,0.235352,0.787598
1481309349062349,0.14502,-0.515625,0.859863
1481309349076421,-0.0986328,-1.18359,1.04443
1481309349099360,-0.263672,-0.975586,1.11816
1481309349122350,-0.237793,-0.188965,1.06104
1481309349136432,-0.237305,0.338867,0.905762
1481309349159004,-0.156738,0.12207,0.773926
1481309349182107,-0.193359,-0.33252,1.03564
1481309349198007,-0.141602,-0.514648,1.13037
1481309349219078,-0.14209,-0.270508,1.09229
1481309349242088,-0.148438,-0.112793,1.00391
1481309349256113,-0.166504,-0.112305,1.00293
1481309349279193,-0.132813,-0.187012,0.972656
1481309349302185,-0.102539,-0.280762,0.987305
1481309349316185,-0.0898438,-0.289063,0.967285
1481309349339123,-0.09375,-0.299316,0.932617
1481309349362246,-0.122559,-0.282227,0.95459
1481309349376177,-0.123047,-0.299316,0.96582
1481309349399177,-0.0810547,-0.337402,0.958008
1481309349422179,-0.0517578,-0.421387,0.949707
1481309349436767,-0.0507813,-0.462402,0.931641
1481309349458837,-0.10791,-0.450195,0.919434
1481309349481846,-0.151367,-0.424805,0.907715
1481309349496777,-0.197266,-0.429688,0.897949
1481309349518862,-0.26123,-0.374512,0.911621
1481309349541358,-0.333984,-0.391113,0.90332
1481309349556379,-0.458008,-0.384766,0.942871
1481309349579382,-0.532715,-0.398926,0.916992
1481309349601452,-0.576172,-0.380859,0.930664
1481309349616464,-0.615723,-0.364258,0.914063
1481309349638895,-0.637695,-0.30127,0.863281
1481309349661576,-0.608398,-0.28418,0.896973
1481309349676577,-0.637695,-0.282715,0.914551
1481309349707545,-0.657227,-0.327637,0.880371
1481309349721589,-0.651367,-0.35498,0.875977
1481309349736589,-0.691406,-0.347168,0.848633
1481309349758689,-0.697754,-0.306641,0.818359
1481309349781727,-0.664063,-0.258789,0.79834
1481309349796733,-0.647461,-0.258301,0.81543
1481309349818742,-0.62793,-0.262207,0.813477
1481309349841752,-0.640625,-0.224609,0.839355
1481309349856771,-0.683594,-0.1875,0.82959
1481309349878779,-0.698242,-0.266602,0.804199
1481309349901793,-0.68457,-0.304688,0.771973
1481309349916803,-0.737793,-0.30127,0.776367
1481309349939282,-0.775879,-0.208984,0.810547
1481309349960871,-0.747559,-0.0913086,0.865723
1481309349978867,-0.788086,-0.0405273,0.816895
1481309349998940,-0.837891,-0.09375,0.803711
1481309350021874,-0.856934,-0.116699,0.825195
1481309350036464,-0.855957,-0.0244141,0.816895
1481309350059107,-0.82666,0.20459,0.883301
1481309350081108,-0.819336,0.304199,0.84375
1481309350096118,-0.818848,0.313477,0.79248
1481309350119110,-0.757813,0.360352,0.812988
1481309350141621,-0.645508,0.550781,0.812988
1481309350156142,-0.64209,0.810059,0.814453
1481309350180144,-0.584961,0.794434,0.795898
1481309350201214,-0.556641,0.709961,0.80127
1481309350216216,-0.508301,0.713867,0.834961
1481309350239157,-0.47998,0.808105,0.803223
1481309350261252,-0.427734,0.834961,0.836426
1481309350276253,-0.397461,0.727539,0.89502
1481309350299257,-0.368652,0.498047,0.954102
1481309350321190,-0.361328,0.279297,0.915527
1481309350344766,-0.371094,0.149902,0.927734
1481309350359298,-0.357422,0.0908203,1.00195
1481309350381299,-0.302734,0.0913086,1.01563
1481309350396380,-0.311523,-0.0458984,0.980957
1481309350419310,-0.30127,-0.227051,1.00146
1481309350441882,-0.274902,-0.358398,0.978516
1481309350459428,-0.274902,-0.374512,0.90625
1481309350479435,-0.303223,-0.321289,0.878418
1481309350501501,-0.372559,-0.271973,0.592285
1481309350517437,-0.287598,-0.097168,0.126953
1481309350542014,-0.0991211,0.589844,-0.262207
1481309350561542,0.141602,1.44238,-0.314941
1481309350577533,0.124023,2.01953,0.105469
1481309350598536,0.343262,2.23047,0.313965
1481309350621541,0.585449,2.19092,-0.0214844
1481309350644119,0.121094,1.36816,0.00634766
1481309350658835,-0.300781,0.594238,0.145508
1481309350681837,-0.371094,0.593262,0.584473
1481309350704842,-0.152832,0.805664,0.541992
1481309350718910,-0.343262,0.307617,0.268066
1481309350741421,-0.36377,-0.686523,0.31543
1481309350764209,-0.288086,-1.63428,0.925781
1481309350779154,-0.174316,-2.21045,1.11572
1481309350809212,-0.172852,-1.10449,0.650879
1481309350824142,-0.283691,-0.0307617,0.229492
1481309350847151,-0.230957,0.519043,0.0517578
1481309350861242,-0.150391,0.803223,-0.162109
1481309350884174,-0.0913086,1.02832,-0.253418
1481309350899248,0.0258789,1.5376,-0.0908203
1481309350921178,0.258789,2.10303,-0.043457
1481309350944255,0.566406,2.2583,0.00146484
1481309350958763,0.233887,1.74609,-0.0991211
1481309350981773,-0.0419922,1.18555,0.0737305
1481309351003765,-0.140137,1.07617,0.117188
1481309351018835,-0.262207,0.750488,0.224121
1481309351041846,-0.356934,0.231445,0.233398
1481309351064440,-0.284668,-0.708496,0.458496
1481309351078511,-0.29248,-1.67139,0.945313
1481309351101512,-0.192383,-2.23535,1.02832
1481309351123516,-0.145996,-1.10303,0.640625
1481309351139022,-0.216797,-0.0820313,0.20166
1481309351161632,-0.140625,0.541504,-0.0151367
1481309351183629,-0.187012,0.599609,-0.265137
1481309351198632,-0.192871,0.915039,-0.340332
1481309351221561,-0.0664063,1.73535,-0.214844
1481309351244069,0.252441,2.21631,-0.176758
1481309351258746,0.540039,2.16602,0.115723
1481309351281748,0.336426,1.71289,0.0556641
1481309351303750,-0.00683594,1.24658,0.145996
1481309351318819,-0.183594,1.00586,0.20752
1481309351341329,-0.188477,0.95752,0.422363
1481309351364053,-0.186035,0.65918,0.491699
1481309351379055,-0.322266,-0.108887,0.503418
1481309351401055,-0.361328,-1.00928,0.786133
1481309351423998,-0.304199,-1.82764,1.0918
1481309351440567,-0.078125,-1.21826,0.717285
1481309351461088,-0.175781,-0.150879,0.305176
1481309351484159,-0.101563,0.673828,-0.0151367
1481309351500090,-0.104492,0.887695,-0.152832
1481309351521097,-0.183594,0.881348,-0.179688
1481309351544172,-0.14502,1.14941,-0.269043
1481309351566267,0.0336914,1.53809,-0.155273
1481309351581267,0.361816,1.75781,-0.00195313
1481309351604316,0.611328,1.93164,0.12207
1481309351620200,0.332031,1.71777,0.138184
1481309351641710,0.0273438,1.46387,0.147949
1481309351664309,-0.115723,1.28955,0.196289
1481309351680263,-0.192871,1.05029,0.351563
1481309351701333,-0.289551,0.63623,0.444336
1481309351725264,-0.307129,0.152344,0.550293
1481309351740344,-0.295898,-0.479492,0.891602
1481309351760922,-0.384766,-1.05225,1.16553
1481309351783924,-0.350098,-1.45313,1.125
1481309351816859,-0.173828,-1.09912,0.755859
1481309351820861,-0.261719,-0.211914,0.462891
1481309351843937,-0.222656,0.404297,0.226074
1481309351860531,-0.0527344,0.714355,-0.0439453
1481309351881601,0.03125,0.826172,-0.18457
1481309351903534,0.0600586,1.0376,-0.287598
1481309351920534,0.0566406,1.43018,-0.319824
1481309351941543,0.199707,1.6665,-0.129883
1481309351963658,0.448242,1.53418,0.0507813
1481309351980587,0.344727,1.18359,0.124023
1481309352001660,-0.00341797,0.797852,0.143066
1481309352023705,-0.12793,0.711426,0.103516
1481309352040672,-0.0864258,0.874512,0.134277
1481309352061707,-0.00878906,1.07324,0.241211
1481309352083776,0.0864258,1.14111,0.26123
1481309352100705,0.019043,1.07568,0.243164
1481309352123709,-0.0180664,0.983887,0.228516
1481309352144288,-0.0170898,1.03857,0.229004
1481309352160810,0.00390625,1.10596,0.205078
1481309352181824,-0.0107422,1.04102,0.231445
1481309352203816,-0.0454102,0.957031,0.274902
1481309352219886,-0.0585938,0.962402,0.287598
1481309352241821,-0.0341797,0.992188,0.289063
1481309352263842,-0.0371094,0.967773,0.289063
1481309352279849,-0.0429688,0.936035,0.28418
1481309352301848,-0.0410156,0.916016,0.289551
1481309352323915,-0.0180664,0.963867,0.26416
1481309352340353,-0.00292969,0.975098,0.243652
1481309352362885,-0.0161133,0.933594,0.252441
1481309352383957,-0.00390625,0.918457,0.241699
1481309352399907,0.00976563,0.932129,0.234863
1481309352422888,0.00439453,0.970703,0.216797
1481309352444470,0.00927734,0.974609,0.21875
1481309352460044,0.015625,0.904297,0.23877
1481309352482990,0.00439453,0.910645,0.23877
1481309352503996,0.0297852,0.960449,0.203125
1481309352526064,0.0249023,0.990234,0.169922
1481309352543072,-0.00146484,0.941895,0.145508
1481309352564167,-0.00976563,0.908203,0.147949
1481309352586168,0.00244141,0.933594,0.0957031
1481309352603097,-0.000976563,1.0332,0.0922852
1481309352624099,0.0415039,1.12354,0.102051
1481309352646680,0.125977,1.13379,0.0585938
1481309352663202,0.166016,1.08984,0.0214844
1481309352684276,0.15332,1.03857,0.0224609
1481309352706205,0.240234,1.02979,-0.00146484
1481309352722211,0.348145,1.02783,-0.00488281
1481309352744285,0.397949,0.96875,-0.0209961
1481309352766377,0.455078,0.87793,-0.0371094
1481309352782380,0.5,0.844238,-0.0253906
1481309352804309,0.508789,0.879883,-0.0678711
1481309352826382,0.584473,0.727051,-0.0688477
1481309352842902,0.739746,0.590332,-0.0234375
1481309352863494,0.787109,0.485352,-0.00732422
1481309352886489,0.813965,0.338379,0.0532227
1481309352902435,0.917969,0.282227,0.00878906
1481309352923500,0.889648,0.0786133,0.117676
1481309352946539,1.01709,-0.0625,0.178223
1481309352962563,1.05078,-0.446777,0.290039
1481309352986565,0.944824,-0.765137,0.423828
1481309353006637,0.908203,-0.76416,0.44873
1481309353028568,0.888184,-0.56543,0.283691
1481309353044079,0.803711,-0.652832,0.29541
1481309353066725,0.819824,-0.681641,0.302734
1481309353082654,0.795898,-0.479004,0.291992
1481309353103657,0.732422,-0.121582,0.121582
1481309353126659,0.647949,0.149902,-0.0380859
1481309353150666,0.584473,0.0737305,0.0712891
1481309353163779,0.443848,0.0893555,0.00390625
1481309353186712,0.339355,0.516602,-0.0380859
1481309353202710,0.0229492,0.893066,-0.181152
1481309353223783,-0.0488281,1.21387,-0.291992
1481309353246720,-0.0742188,1.43506,-0.306641
1481309353262741,-0.29248,1.53564,-0.358398
1481309353285742,-0.284668,1.49561,-0.341797
1481309353314814,-0.0532227,1.65039,-0.422363
1481309353322743,-0.00195313,1.67041,-0.362793
1481309353345762,0.0429688,1.72021,-0.338379
1481309353366166,0.0791016,1.78516,-0.378418
1481309353383064,0.0463867,1.6792,-0.364746
1481309353405064,0.00244141,1.58447,-0.360352
1481309353426135,-0.027832,1.48193,-0.289063
1481309353443147,0.0473633,1.42285,-0.253418
1481309353465677,0.189453,1.34863,-0.25293
1481309353486682,0.263672,1.11084,-0.216797
1481309353510681,0.375977,0.868164,-0.18457
1481309353525684,0.425781,0.550293,-0.191406
1481309353546693,0.433105,0.260742,-0.163574
1481309353562712,0.391113,0.0488281,-0.0878906
1481309353585713,0.344238,-0.19873,0.131348
1481309353606762,0.452148,-0.650879,0.166992
1481309353622714,0.594238,-0.744141,0.261719
1481309353646227,0.479492,-0.988281,0.378906
1481309353666821,0.473145,-1.07227,0.445313
1481309353682811,0.499512,-1.0083,0.438477
1481309353704806,0.516602,-0.845703,0.397949
1481309353734876,0.595215,-0.660645,0.381348
1481309353749317,0.602539,-0.500488,0.373535
1481309353764893,0.638672,-0.218262,0.287598
1481309353786852,0.677734,0.00830078,0.120605
1481309353802847,0.801758,0.28418,0.103516
1481309353824858,0.788574,0.303223,0.11084
1481309353846864,0.71875,0.452148,0.0742188
1481309353862939,0.598633,0.744141,0.00488281
1481309353884949,0.461914,1.229,-0.205566
1481309353906022,0.280273,1.37012,-0.350098
1481309353922941,0.027832,1.11572,-0.179199
1481309353945452,-0.0385742,1.31641,-0.278809
1481309353966093,-0.213867,1.39014,-0.29834
1481309353983023,-0.160156,1.37305,-0.312988
1481309354005023,-0.0839844,1.3833,-0.278809
1481309354026096,0.0258789,1.50635,-0.32959
1481309354043039,0.0913086,1.59766,-0.327637
1481309354065112,0.0444336,1.5376,-0.349121
1481309354086230,0.065918,1.48633,-0.287109
1481309354103115,0.133789,1.3418,-0.227051
1481309354125116,0.275391,1.24365,-0.180176
1481309354146268,0.362305,1.1582,-0.118652
1481309354162386,0.429199,0.992676,-0.0908203
1481309354185315,0.588867,0.77002,-0.0810547
1481309354206315,0.632324,0.567871,-0.0576172
1481309354230317,0.562012,0.345703,-0.0371094
1481309354245326,0.599121,0.0600586,0.0200195
1481309354268388,0.652344,-0.0673828,0.0952148
1481309354284388,0.57959,-0.243164,0.18457
1481309354306387,0.513672,-0.664063,0.395996
1481309354327393,0.625488,-0.942871,0.452148
1481309354349903,0.783691,-0.952637,0.412598
1481309354373475,0.606445,-0.880859,0.305176
1481309354387481,0.569824,-0.913574,0.364746
1481309354409547,0.625,-0.733887,0.360352
1481309354424551,0.652344,-0.481445,0.302246
1481309354447492,0.709961,-0.341797,0.299316
1481309354469514,0.814941,-0.23291,0.253906
1481309354484582,0.836426,-0.120117,0.156738
1481309354507516,0.849121,0.0371094,0.158203
1481309354538027,0.932617,0.214355,0.126953
1481309354544529,0.990234,0.394531,0.11084
1481309354567035,0.871094,0.603516,0.0625
1481309354590038,0.557129,0.898438,0.0146484
1481309354605037,0.168457,1.0376,-0.0166016
1481309354627116,-0.120605,1.22949,-0.0498047
1481309354650052,-0.656738,1.23926,-0.132324
1481309354664712,-0.900879,1.13965,-0.0712891
1481309354686649,-0.505371,1.03467,0.192871
1481309354709723,-0.355957,0.998047,0.317383
1481309354731716,-0.224121,0.884766,0.308105
1481309354747154,-0.138184,0.743652,0.296875
1481309354769224,-0.121582,1.16846,0.35498
1481309354785164,-0.328125,1.4541,0.272461
1481309354807234,-0.291504,1.39551,0.189453
1481309354829259,-0.267578,1.21973,0.208984
1481309354844673,-0.256836,1.14014,0.254395
1481309354866861,-0.196777,1.04053,0.290039
1481309354889790,-0.23877,0.86377,0.312988
1481309354904791,-0.265625,0.826172,0.337402
1481309354926863,-0.225098,0.967773,0.300781
1481309354949803,-0.200195,1.04736,0.270996
1481309354964379,-0.157715,0.986328,0.228027
1481309354987314,-0.160156,0.996094,0.194824
1481309355009419,-0.162109,1.05713,0.15625
1481309355024382,-0.164551,0.906738,0.17627
1481309355047324,-0.208496,0.822266,0.213867
1481309355069335,-0.193359,0.968262,0.187988
1481309355084403,-0.198242,1.09473,0.161621
1481309355107404,-0.211914,1.00293,0.194824
1481309355137847,-0.227539,0.912598,0.272461
1481309355144847,-0.186035,0.891113,0.27832
1481309355168353,-0.202148,0.879395,0.268555
1481309355189426,-0.212402,0.851563,0.299805
1481309355204366,-0.174316,0.924805,0.26416
1481309355227361,-0.208008,1.10791,0.105469
1481309355251369,-0.335938,1.07031,0.107422
1481309355264987,-0.292969,0.865723,0.289063
1481309355286925,-0.144043,1.01904,0.359863
1481309355309922,-0.260742,1.0415,0.476563
1481309355325922,-0.335449,0.86084,0.70459
1481309355347432,-0.236816,0.762207,0.924805
1481309355369441,-0.150879,0.66748,0.965332
1481309355385441,-0.250977,0.605957,0.942383
1481309355407489,-0.298828,0.563965,0.998535
1481309355429548,-0.24707,0.595703,1.0293
1481309355446951,-0.289063,0.647461,0.989258
1481309355467464,-0.266602,0.757324,0.90332
1481309355489463,-0.251953,0.844238,0.818359
1481309355506462,-0.265137,0.819824,0.726074
1481309355534534,-0.262695,0.786621,0.661133
1481309355549979,-0.22168,0.866211,0.603027
1481309355566483,-0.188477,0.932617,0.573242
1481309355587488,-0.141602,0.979492,0.568848
1481309355609557,-0.097168,1.05469,0.58252
1481309355625561,-0.0317383,1.14258,0.564453
1481309355649002,-0.0517578,1.07324,0.5625
1481309355669517,-0.0449219,1.02441,0.634766
1481309355693513,-0.0595703,1.18994,0.601563
1481309355707520,-0.162109,1.01318,0.679688
1481309355731517,-0.17334,0.664063,0.789551
1481309355746030,-0.112305,0.611328,0.779785
1481309355767539,-0.198242,0.651855,0.804199
1481309355789539,-0.205078,0.531738,0.765137
1481309355806537,-0.174316,0.206543,0.759277
1481309355826610,-0.192383,-0.0336914,0.766602
1481309355850056,-0.186035,-0.183105,0.816895
1481309355865630,-0.150391,-0.271484,0.772949
1481309355887565,-0.176758,-0.251953,0.713867
1481309355909634,-0.231934,-0.336426,0.639648
1481309355925594,-0.189941,-0.444336,0.492188
1481309355947581,-0.15918,-0.645996,0.417969
1481309355971590,-0.200684,-0.734375,0.312988
1481309355985588,-0.229004,-0.849121,0.23584
1481309356007595,-0.189453,-0.974609,0.170898
1481309356029663,-0.234863,-1.04932,0.160645
1481309356045689,-0.294922,-0.990723,0.148438
1481309356067706,-0.289063,-0.92334,0.126953
1481309356089701,-0.363281,-1.01025,0.148926
1481309356111704,-0.44873,-1.08008,0.166016
1481309356126772,-0.484863,-1.19092,0.17334
1481309356149713,-0.382324,-1.24463,0.199219
1481309356171720,-0.364258,-1.22607,0.209473
1481309356186726,-0.332031,-1.23779,0.200195
1481309356209747,-0.40332,-1.23975,0.199707
1481309356225722,-0.421387,-1.15186,0.252441
1481309356249236,-0.391113,-0.837402,0.269043
1481309356269826,-0.38916,-0.534668,0.374512
1481309356285743,-0.306152,-0.398438,0.564941
1481309356308744,-0.209473,-0.257813,0.695313
1481309356329806,-0.150391,-0.0566406,0.737305
1481309356345755,-0.147949,0.0942383,0.770508
1481309356368765,-0.135742,0.181641,0.79248
1481309356389781,-0.0351563,0.271973,0.807129
1481309356405769,0.0336914,0.331543,0.803223
1481309356428768,0.0415039,0.401855,0.794922
1481309356449785,0.0605469,0.566895,0.746582
1481309356471792,0.0395508,0.653809,0.687012
1481309356488794,0.0283203,0.596191,0.652344
1481309356509866,0.109863,0.645508,0.588867
1481309356531798,0.160156,0.693848,0.480957
1481309356554814,0.162598,0.77832,0.374023
1481309356569823,0.168457,0.851563,0.25293
1481309356591887,0.130859,0.806152,0.175781
1481309356608817,0.13623,0.766113,0.0527344
1481309356629889,0.180176,0.763672,-0.0400391
1481309356652333,0.258301,0.856445,-0.121094
1481309356668840,0.397949,1.11328,-0.170898
1481309356689854,0.523926,1.29199,-0.221191
1481309356711843,0.529297,1.37012,-0.241699
1481309356728842,0.312012,1.24072,-0.24707
1481309356749858,0.215332,1.09375,-0.36377
1481309356771865,0.230469,1.13818,-0.376953
1481309356788865,0.259277,1.20752,-0.368164
1481309356809915,0.265625,1.1123,-0.3125
1481309356831966,0.246582,1.06494,-0.287109
1481309356848881,0.25,1.14502,-0.266113
1481309356869891,0.245605,1.25635,-0.264648
1481309356891957,0.183594,1.21484,-0.255371
1481309356908888,0.222656,1.1333,-0.288086
1481309356929962,0.321777,1.24072,-0.319824
1481309356952406,0.347168,1.28076,-0.26123
1481309356968913,0.42334,1.2583,-0.214355
1481309356990014,0.599609,1.19873,-0.175293
1481309357011918,0.59375,1.06641,-0.111816
1481309357028916,0.532715,0.900879,-0.0244141
1481309357049932,0.604004,0.776855,0.0454102
1481309357071938,0.679688,0.696289,0.0517578
1481309357087940,0.702637,0.58252,0.0898438
1481309357109945,0.730469,0.519531,0.0976563
1481309357131970,0.709961,0.423828,0.104492
1481309357147951,0.709473,0.291016,0.173828
1481309357169966,0.738281,0.202637,0.185059
1481309357199979,0.73584,0.113281,0.183594
1481309357207962,0.713379,0.0375977,0.173828
1481309357230964,0.689453,-0.046875,0.200195
1481309357252481,0.680176,-0.0703125,0.206543
1481309357267990,0.630371,-0.124512,0.229492
1481309357290991,0.602539,-0.24707,0.26416
1481309357312011,0.649414,-0.37207,0.375977
1481309357327989,0.633301,-0.492188,0.442383
1481309357351006,0.612305,-0.434082,0.441895
1481309357371942,0.652344,-0.546387,0.490723
1481309357388920,0.628906,-0.664063,0.584961
1481309357410920,0.592285,-0.648926,0.607422
1481309357431938,0.612793,-0.57666,0.59668
1481309357447934,0.655273,-0.539551,0.602051
1481309357478888,0.680176,-0.540527,0.647461
1481309357491956,0.727539,-0.492188,0.661133
1481309357507888,0.79834,-0.431641,0.62793
1481309357530887,0.793945,-0.414551,0.592285
1481309357553399,0.778809,-0.369629,0.557617
1481309357567693,0.856934,-0.282715,0.557617
1481309357590701,0.928711,-0.220215,0.494141
1481309357611707,0.939453,-0.193848,0.428711
1481309357627695,0.906738,-0.15625,0.412598
1481309357651209,0.897461,-0.0878906,0.373047
1481309357672027,0.89502,-0.0151367,0.337402
1481309357688025,0.881836,0.0361328,0.295898
1481309357711029,0.835938,0.116211,0.269531
1481309357732101,0.828125,0.177246,0.271484
1481309357755731,0.797363,0.217773,0.210449
1481309357771730,0.723633,0.245605,0.218262
1481309357791801,0.674316,0.353027,0.244141
1481309357807783,0.645508,0.454102,0.188477
1481309357830733,0.553711,0.527832,0.179199
1481309357853246,0.489258,0.588379,0.184082
1481309357867804,0.471191,0.63623,0.198242
1481309357890803,0.418945,0.737305,0.175781
1481309357911806,0.382813,0.888672,0.161621
1481309357927805,0.248535,0.975586,0.147461
1481309357951316,0.0112305,1.05957,0.158203
1481309357971941,-0.15625,1.07959,0.242676
1481309357987941,-0.154785,1.18164,0.348633
1481309358010946,-0.155762,1.20898,0.361816
1481309358031948,-0.196289,1.07373,0.445313
1481309358048452,-0.176758,1.03564,0.484375
1481309358070989,-0.11084,1.09961,0.47168
1481309358092061,-0.120117,1.13916,0.485352
1481309358107990,-0.140625,1.17041,0.518066
1481309358130037,-0.15332,1.10352,0.504883
1481309358154006,-0.154785,1.1709,0.474609
1481309358168517,-0.148926,1.2124,0.432617
1481309358190517,-0.136719,1.07861,0.476074
1481309358213519,-0.0996094,0.900391,0.521973
1481309358227522,-0.0932617,0.931152,0.500488
1481309358250538,-0.102539,0.988281,0.398926
1481309358273598,-0.156738,0.916016,0.440918
1481309358310607,-0.185059,0.740234,0.539063
1481309358313600,-0.15918,0.665039,0.596191
1481309358333605,-0.161621,0.62793,0.562012
1481309358354117,-0.216309,0.59668,0.630371
1481309358370257,-0.225586,0.667969,0.709961
1481309358393261,-0.249512,0.698242,0.74707
1481309358414278,-0.279297,0.57666,0.770996
1481309358430260,-0.285156,0.445801,0.841797
1481309358453795,-0.279785,0.499512,0.830078
1481309358474860,-0.329102,0.522461,0.848633
1481309358490805,-0.358887,0.475098,0.855469
1481309358513809,-0.365723,0.374512,0.849609
1481309358534890,-0.380371,0.375977,0.867676
1481309358550815,-0.444824,0.322754,0.877441
1481309358573326,-0.527344,0.275391,0.863281
1481309358594394,-0.57666,0.186035,0.839355
1481309358610328,-0.571777,0.0688477,0.81543
1481309358633330,-0.556152,-0.0834961,0.787109
1481309358654843,-0.54541,-0.164551,0.782227
1481309358670098,-0.572754,-0.228516,0.774902
1481309358694092,-0.629883,-0.285156,0.77002
1481309358715100,-0.72168,-0.362793,0.751953
1481309358730096,-0.815918,-0.411133,0.758789
1481309358753606,-0.863281,-0.460938,0.762695
1481309358774686,-0.8125,-0.464355,0.762207
1481309358790619,-0.819824,-0.401367,0.791504
1481309358813617,-0.856445,-0.339355,0.830566
1481309358834688,-0.829102,-0.345703,0.825195
1481309358857221,-0.762695,-0.325684,0.804688
1481309358873172,-0.741699,-0.30957,0.82666
1481309358894172,-0.708008,-0.303223,0.822754
1481309358910172,-0.669434,-0.251953,0.833496
1481309358934173,-0.631836,-0.189453,0.835938
1481309358954686,-0.619629,-0.151855,0.888184
1481309358978498,-0.598633,-0.166016,0.922363
1481309358992502,-0.586914,-0.180664,0.953613
1481309359014592,-0.568359,-0.1875,0.931641
1481309359030513,-0.549316,-0.162598,0.916016
1481309359053095,-0.560547,-0.150879,0.929199
1481309359074675,-0.554688,-0.111816,0.908203
1481309359090607,-0.551758,-0.15332,0.87793
1481309359112609,-0.571289,-0.204102,0.870605
1481309359143638,-0.574707,-0.169434,0.878418
1481309359150639,-0.584961,-0.153809,0.871094
1481309359172647,-0.630859,-0.164551,0.907227
1481309359196649,-0.687988,-0.149414,1.00391
1481309359216721,-0.762695,-0.262695,1.09961
1481309359232656,-0.838867,-0.368164,1.32959
1481309359256284,-0.86084,-0.298828,1.5498
1481309359277360,-0.962891,-0.373047,1.49658
1481309359293286,-1.0918,-0.614258,1.38184
1481309359316288,-1.0376,-0.727051,1.22217
1481309359337290,-0.858398,-0.702637,1.03467
1481309359353298,-0.74707,-0.650879,0.904297
1481309359375806,-0.708984,-0.602051,0.796875
1481309359396809,-0.704102,-0.635254,0.691895
1481309359412810,-0.660156,-0.686035,0.635254
1481309359435814,-0.529785,-0.667969,0.577148
1481309359457390,-0.448242,-0.717285,0.496582
1481309359473391,-0.464844,-0.831543,0.446777
1481309359503393,-0.483887,-0.904297,0.441895
1481309359517466,-0.444824,-0.849609,0.354004
1481309359533397,-0.359375,-0.826172,0.245117
1481309359556440,-0.270996,-0.862793,0.299805
1481309359577441,-0.273438,-0.813965,0.303711
1481309359592498,-0.224609,-0.740723,0.265137
1481309359616445,-0.090332,-0.682129,0.236328
1481309359637445,-0.0136719,-0.658691,0.194824
1481309359652955,0.0390625,-0.623047,0.197266
1481309359676536,0.0151367,-0.583008,0.158691
1481309359698634,0.0380859,-0.515137,0.15332
1481309359712541,0.140137,-0.42041,0.129395
1481309359735546,0.189453,-0.411621,0.09375
1481309359757593,0.346191,-0.416504,0.152344
1481309359772593,0.394043,-0.367676,0.183594
1481309359795596,0.413086,-0.282715,0.217773
1481309359817599,0.469238,-0.226563,0.233398
1481309359832600,0.539063,-0.280762,0.258789
1481309359855606,0.618652,-0.28125,0.306152
1481309359876794,0.654785,-0.284668,0.290527
1481309359892753,0.612305,-0.244141,0.307617
1481309359915758,0.555176,-0.166992,0.334473
1481309359936760,0.652832,-0.133301,0.368164
1481309359953282,0.682129,-0.0947266,0.433105
1481309359975291,0.669922,-0.0981445,0.467773
1481309360004292,0.665039,-0.0776367,0.395508
1481309360013293,0.705566,0.0942383,0.524414
1481309360035295,0.697266,0.220215,0.641602
1481309360058156,0.652832,0.191895,0.709473
1481309360073153,0.671387,0.210449,0.751953
1481309360095157,0.660156,0.22998,0.716797
1481309360118160,0.67627,0.364746,0.780762
1481309360133158,0.636719,0.470215,0.877441
1481309360155702,0.592773,0.422852,0.928711
1481309360178370,0.599121,0.477539,0.963379
1481309360193366,0.545898,0.615234,1
1481309360215370,0.514648,0.57666,1.00146
1481309360244965,0.567383,0.509277,1.00537
1481309360259754,0.574219,0.617188,1.05273
1481309360275755,0.595215,0.753418,1.0791
1481309360298757,0.599121,0.700195,1.06689
1481309360319838,0.608887,0.622559,1.10352
1481309360335760,0.616699,0.708496,1.09033
1481309360358862,0.580566,0.825195,1.08398
1481309360379930,0.541504,0.865234,1.04248
1481309360395861,0.512207,0.808105,0.990234
1481309360418867,0.52002,0.802246,0.869629
1481309360439927,0.485352,0.806152,0.744141
1481309360455378,0.489258,0.730469,0.661133
1481309360478886,0.443848,0.548828,0.603027
1481309360499905,0.451172,0.462891,0.454102
1481309360515885,0.426758,0.354004,0.324219
1481309360538889,0.425293,0.205078,0.274414
1481309360559543,0.413574,0.125977,0.253418
1481309360575474,0.378906,0.0703125,0.212402
1481309360598475,0.355957,0.0336914,0.179688
1481309360619561,0.326172,-0.111816,0.117676
1481309360643484,0.268066,-0.32666,0.223633
1481309360657997,0.255371,-0.366699,0.305664
1481309360680027,0.272461,-0.266113,0.194824
1481309360695025,0.195801,-0.19873,0.185547
1481309360726027,0.104004,-0.149414,0.337891
1481309360740043,-0.00976563,-0.12207,0.498047
1481309360755509,-0.0600586,-0.251953,0.632324
1481309360778114,-0.0634766,-0.20166,0.643066
1481309360800020,-0.15918,0.0571289,0.66748
1481309360815041,-0.343262,0.172852,0.879883
1481309360838021,-0.447266,-0.115723,1.00488
1481309360860110,-0.383789,-0.125977,0.907715
1481309360875106,-0.405762,0.158691,0.752441
1481309360898109,-0.587891,0.44873,0.857422
1481309360920109,-0.678223,0.314453,0.873535
1481309360935112,-0.716309,0.205078,0.849609
1481309360958196,-0.736816,0.373535,0.682617
1481309360980198,-0.826172,0.666016,0.958984
1481309360995196,-0.853027,0.617188,1.11328
1481309361018200,-0.946777,0.477051,1.17139
1481309361041199,-1.07178,0.457031,0.96582
1481309361055709,-1.16748,0.558105,0.778809
1481309361078053,-1.12646,0.671387,0.677734
1481309361101055,-1.07324,0.797852,0.692383
1481309361122137,-1.1001,0.953613,0.560059
1481309361138061,-1.1167,1.13135,0.476563
1481309361160715,-1.12109,0.953613,0.303223
1481309361181759,-1.22168,0.772949,0.278809
1481309361197688,-1.39893,0.750488,0.291504
1481309361220689,-1.45996,0.803223,0.239746
1481309361242702,-1.42236,0.938965,0.287598
1481309361257799,-1.40918,0.937012,0.325195
1481309361280800,-1.5332,0.811523,0.378418
1481309361301806,-1.61865,0.653809,0.377441
1481309361317803,-1.55615,0.633301,0.361816
1481309361340804,-1.55469,0.650391,0.398926
1481309361361907,-1.52832,0.54834,0.428711
1481309361377838,-1.53174,0.287109,0.487305
1481309361400840,-1.53418,0.177734,0.458008
1481309361421914,-1.51025,0.211426,0.430176
1481309361437839,-1.4873,0.0957031,0.500488
1481309361460948,-1.39648,-0.0351563,0.589844
1481309361482019,-1.2959,-0.0820313,0.557129
1481309361497949,-1.19922,-0.0229492,0.451172
1481309361520950,-1.05811,0.09375,0.364258
1481309361542458,-0.933594,0.277344,0.351074
1481309361556959,-0.762207,0.342285,0.302246
1481309361571107,-0.630859,0.27002,0.251465
1481309361594032,-0.540527,0.164063,0.26123
1481309361617106,-0.462402,0.194336,0.284668
1481309361649624,-0.419434,0.246582,0.286133
1481309361654125,-0.388184,0.219238,0.291992
1481309361677228,-0.358887,0.152832,0.312988
1481309361691229,-0.366211,0.175781,0.308594
1481309361714230,-0.394531,0.148438,0.316895
1481309361737179,-0.443359,0.0249023,0.360352
1481309361751743,-0.477539,0.0078125,0.390137
1481309361774427,-0.515625,0.0288086,0.371094
1481309361797496,-0.606445,0.0634766,0.345215
1481309361811493,-0.787598,0.0664063,0.292969
1481309361833495,-0.916992,0.126465,0.276367
1481309361857507,-0.965332,0.234375,0.277832
1481309361871084,-1.10986,0.341797,0.304688
1481309361894027,-1.24756,0.33252,0.35791
1481309361917086,-1.37891,0.418457,0.416016
1481309361932018,-1.56934,0.446777,0.489746
1481309361954097,-1.69385,0.345215,0.562988
1481309361977621,-1.85742,0.36377,0.598633
1481309361991691,-2.02295,0.416504,0.63623
1481309362013693,-2.12793,0.394043,0.67334
1481309362037694,-2.21973,0.413574,0.721191
1481309362051706,-2.24805,0.500488,0.693359
1481309362073826,-2.25586,0.507324,0.654297
1481309362096826,-2.24219,0.394043,0.645508
1481309362114756,-2.19238,0.381836,0.715332
1481309362133829,-2.0918,0.452148,0.716309
1481309362157266,-1.94824,0.489258,0.718262
1481309362171272,-1.78564,0.394043,0.700684
1481309362194346,-1.64893,0.322754,0.667969
1481309362217277,-1.47461,0.317383,0.62793
1481309362231346,-1.36182,0.26416,0.57959
1481309362254356,-1.20508,0.208496,0.565918
1481309362276999,-1.05615,0.191406,0.533203
1481309362291930,-0.94873,0.141113,0.498047
1481309362314000,-0.794434,0.0776367,0.488281
1481309362336932,-0.666504,0.0332031,0.486328
1481309362353512,-0.555664,0.0361328,0.486328
1481309362374033,-0.427734,-0.00195313,0.480957
1481309362397103,-0.340332,-0.0673828,0.495117
1481309362412036,-0.270996,-0.133301,0.583496
1481309362434037,-0.199707,-0.124512,0.563477
1481309362457543,-0.0805664,-0.121582,0.577148
1481309362471170,-0.0693359,-0.213379,0.499023
1481309362494233,-0.0395508,-0.28125,0.499023
1481309362517164,0.078125,-0.220215,0.504883
1481309362539166,0.180176,-0.199707,0.398438
1481309362554172,0.210938,-0.276367,0.384277
1481309362576298,0.229492,-0.311035,0.380371
1481309362599299,0.276367,-0.272949,0.375
1481309362614300,0.36084,-0.216797,0.344238
1481309362636233,0.408691,-0.234863,0.336914
1481309362668268,0.411621,-0.26416,0.305664
1481309362683270,0.442871,-0.257324,0.331055
1481309362696269,0.463867,-0.193359,0.311035
1481309362719266,0.440918,-0.15918,0.318359
1481309362734272,0.483398,-0.111328,0.360352
1481309362756778,0.432129,-0.0239258,0.368164
1481309362779840,0.40625,-0.0375977,0.404785
1481309362793841,0.39502,0.0161133,0.441406
1481309362816844,0.388184,0.0991211,0.505371
1481309362839854,0.335449,0.156738,0.501465
1481309362854281,0.313965,0.188477,0.567871
1481309362876699,0.347656,0.373535,0.556641
1481309362899634,0.273438,0.407715,0.522949
1481309362913703,0.173828,0.346191,0.541504
1481309362936632,0.208984,0.552734,0.65625
1481309362959313,0.239258,0.593262,0.574707
1481309362974241,0.105469,0.489258,0.533691
1481309362996312,0.0327148,0.555176,0.555664
1481309363019242,0.117676,0.781738,0.62207
1481309363034248,0.124512,0.893555,0.618652
1481309363056753,-0.0234375,0.746094,0.603516
1481309363079762,-0.0722656,0.748535,0.658691
1481309363093832,-0.0341797,0.945313,0.731934
1481309363116837,-0.00244141,1.12891,0.812988
1481309363140765,-0.0878906,1.12305,0.883789
1481309363155775,-0.130371,1.0127,0.871582
1481309363184786,-0.161621,1.01514,0.896973
1481309363199786,-0.291016,1.00537,0.893555
1481309363213853,-0.3125,1.05957,0.916504
1481309363236783,-0.268555,1.10742,0.941895
1481309363259944,-0.28125,1.09131,0.932617
1481309363273943,-0.336914,1.11035,0.962402
1481309363296878,-0.370117,1.1582,0.993164
1481309363319875,-0.369141,1.10156,1.03125
1481309363333878,-0.38916,1.08691,1.06885
1481309363356885,-0.390137,1.17285,1.04883
1481309363379962,-0.370605,1.17139,1.04199
1481309363393963,-0.393555,1.13037,1.00977
1481309363417033,-0.421875,1.09814,0.986328
1481309363439965,-0.447754,1.08301,0.987305
1481309363454475,-0.374023,1.02979,0.990723
1481309363476570,-0.361328,1.04688,0.952637
1481309363499569,-0.370605,1.02588,0.90625
1481309363514504,-0.308594,0.948242,0.86377
1481309363536547,-0.256836,0.916016,0.871582
1481309363559745,-0.244629,0.91748,0.793945
1481309363573751,-0.231445,0.946289,0.726563
1481309363596746,-0.174316,0.919434,0.69043
1481309363619678,-0.127441,0.851074,0.67041
1481309363633681,-0.0581055,0.800293,0.643555
1481309363656759,-0.00292969,0.79834,0.585449
1481309363679336,0.0273438,0.819824,0.532227
1481309363694338,0.0883789,0.803711,0.532715
1481309363716338,0.0742188,0.707031,0.500977
1481309363739340,0.0581055,0.618652,0.498047
1481309363754349,0.117188,0.599609,0.540527
1481309363776901,0.199707,0.596191,0.543945
1481309363799973,0.23877,0.562988,0.562012
1481309363813972,0.29541,0.521484,0.578613
1481309363836912,0.327148,0.455566,0.580566
1481309363858983,0.350098,0.342773,0.569336
1481309363874080,0.375,0.28418,0.552734
1481309363897124,0.407715,0.255859,0.558594
1481309363919081,0.494629,0.245117,0.54248
1481309363934163,0.547363,0.159668,0.492676
1481309363956663,0.484863,0.0463867,0.47168
1481309363978741,0.408203,-0.0522461,0.448242
1481309363993741,0.42041,-0.0922852,0.470215
1481309364024676,0.484863,-0.0883789,0.483398
1481309364038743,0.479004,-0.164551,0.443359
1481309364057254,0.376465,-0.28418,0.447754
1481309364076345,0.359863,-0.341797,0.446289
1481309364100278,0.399902,-0.377441,0.411133
1481309364114351,0.374023,-0.48877,0.429688
1481309364136287,0.333496,-0.515625,0.499023
1481309364159289,0.333496,-0.432617,0.478027
1481309364174383,0.220215,-0.406738,0.400879
1481309364196454,0.0976563,-0.512207,0.416016
1481309364219386,0.0561523,-0.460938,0.532227
1481309364234385,0.000976563,-0.368164,0.530273
1481309364256977,-0.139648,-0.45166,0.51123
1481309364279550,-0.208984,-0.480957,0.522949
1481309364295549,-0.222168,-0.318359,0.552734
1481309364316550,-0.383789,-0.175293,0.545898
1481309364338623,-0.536621,-0.28418,0.632324
1481309364354133,-0.573242,-0.318848,0.723145
1481309364376746,-0.593262,-0.154297,0.802246
1481309364407657,-0.671387,-0.0332031,0.774414
1481309364413726,-0.845703,-0.0795898,0.809082
1481309364436727,-0.971191,-0.21875,0.833496
1481309364459167,-0.818359,-0.102539,0.8125
1481309364490037,-0.693359,0.156738,0.668945
1481309364496953,-0.730469,0.257324,0.625977
1481309364518953,-0.835449,0.152344,0.686035
1481309364542025,-0.821289,0.0375977,0.77002
1481309364556535,-0.80127,0.144043,0.701172
1481309364579175,-0.879883,0.324707,0.637695
1481309364602106,-0.992676,0.36377,0.549316
1481309364616109,-1.00732,0.220703,0.566406
1481309364639179,-1.01611,0.130859,0.641113
1481309364662231,-1.0249,0.262695,0.567871
1481309364676286,-1.04248,0.421875,0.469727
1481309364699288,-1.16162,0.377441,0.375977
1481309364722222,-1.22852,0.170898,0.44043
1481309364736219,-1.23389,0.158691,0.487793
1481309364767253,-1.29346,0.235352,0.52832
1481309364781280,-1.31592,0.212402,0.490723
1481309364796252,-1.30762,0.0424805,0.504883
1481309364819255,-1.3252,-0.0493164,0.460449
1481309364841325,-1.39893,-0.10498,0.487305
1481309364856835,-1.38135,-0.117188,0.523926
1481309364888358,-1.28564,-0.13623,0.535645
1481309364901357,-1.29736,-0.158691,0.487793
1481309364916425,-1.36475,-0.242676,0.467285
1481309364939360,-1.27783,-0.351563,0.486328
1481309364961531,-1.15576,-0.358887,0.545898
1481309364976532,-1.15625,-0.353516,0.509277
1481309364999463,-1.15967,-0.408203,0.550293
1481309365021464,-1.02148,-0.352051,0.547363
1481309365036466,-0.961914,-0.0732422,0.453125
1481309365059477,-0.901855,-0.24707,0.530762
1481309365082526,-0.844238,-0.409668,0.503418
1481309365096597,-0.737305,-0.319824,0.487305
1481309365119531,-0.70166,0.0327148,0.40625
1481309365141529,-0.644531,-0.0854492,0.506348
1481309365157040,-0.645508,-0.299805,0.494141
1481309365178660,-0.609375,-0.416992,0.492188
1481309365202589,-0.5625,-0.402832,0.523438
1481309365216594,-0.543945,-0.324219,0.569824
1481309365240591,-0.511719,-0.212402,0.587402
1481309365261697,-0.486328,-0.245605,0.619141
1481309365276701,-0.535156,-0.367676,0.655762
1481309365298770,-0.533203,-0.283203,0.642578
1481309365330712,-0.513672,-0.253906,0.69873
1481309365336702,-0.529297,-0.376953,0.703613
1481309365359210,-0.541992,-0.416016,0.702637
1481309365381735,-0.522949,-0.371094,0.711426
1481309365396806,-0.5,-0.374023,0.739746
1481309365418735,-0.51416,-0.368652,0.730957
1481309365441829,-0.534668,-0.378906,0.720215
1481309365456745,-0.524414,-0.397461,0.745605
1481309365479255,-0.525879,-0.419434,0.75293
1481309365501373,-0.533691,-0.402832,0.752441
1481309365519258,-0.532227,-0.418945,0.74707
1481309365539258,-0.530273,-0.428711,0.748047
1481309365561813,-0.537598,-0.413086,0.737305
1481309365576886,-0.54541,-0.40625,0.743652
1481309365598886,-0.540527,-0.423828,0.757324
1481309365621889,-0.548828,-0.450684,0.744141
1481309365639816,-0.543945,-0.433594,0.756836
1481309365659326,-0.541016,-0.416016,0.746582
1481309365681927,-0.541992,-0.399902,0.75
1481309365697904,-0.546875,-0.42334,0.765137
1481309365718906,-0.544434,-0.432129,0.763184
1481309365741906,-0.553711,-0.419434,0.768555
1481309365765048,-0.550781,-0.436035,0.765625
1481309365779078,-0.549316,-0.429688,0.772949
1481309365803009,-0.54834,-0.419434,0.768555
1481309365818010,-0.549805,-0.432129,0.768555
1481309365839011,-0.547363,-0.435059,0.773926
1481309365862115,-0.552246,-0.422363,0.767578
1481309365878114,-0.560547,-0.404785,0.748535
1481309365899185,-0.545898,-0.411133,0.746094
1481309365921116,-0.540039,-0.41748,0.753418
