timestamp,emg1,emg2,emg3,emg4,emg5,emg6,emg7,emg8
1481309332397044,-1,-2,-4,-1,-1,-1,-1,-2
1481309332397044,-2,-2,-1,6,-2,-3,-1,-2
1481309332404045,-2,-1,2,-2,-1,-1,-2,-1
1481309332404045,0,0,2,2,-3,-1,-2,3
1481309332420579,1,0,-1,-1,0,-1,-2,0
1481309332420579,1,1,2,-1,1,-2,2,0
1481309332422079,1,-1,-2,-2,0,0,0,-2
1481309332422079,0,-1,2,1,0,0,-1,-2
1481309332434581,-2,-3,-11,-2,-1,-3,-1,-2
1481309332434581,0,1,2,1,-1,-4,-2,-3
1481309332442581,-1,-4,-7,-2,-3,1,0,1
1481309332442581,-2,0,5,-2,0,1,-2,-1
1481309332458083,1,-1,3,1,-2,-2,-1,-1
1481309332458083,-1,-2,-8,-2,1,-1,-3,1
1481309332464085,-1,1,0,-1,0,2,0,1
1481309332464085,0,-1,-4,0,-1,0,-2,-1
1481309332480087,-3,-2,2,4,-1,0,-2,-3
1481309332480087,-2,-1,1,0,3,1,-2,-1
1481309332482087,2,0,1,1,-4,-1,1,0
1481309332482087,2,-2,-3,-1,0,0,0,0
1481309332494088,2,1,-2,-1,0,-2,0,-1
1481309332494088,1,-1,3,3,0,-1,0,0
1481309332502099,-1,1,1,-3,0,-2,0,-2
1481309332502099,-4,1,2,1,-1,1,0,0
1481309332517095,-1,-2,-4,1,0,-2,0,-2
1481309332517095,-1,-1,-2,-2,-3,-3,0,0
1481309332556097,-3,-5,-8,-3,2,1,0,-2
1481309332556097,-4,-2,4,2,-2,1,-4,-2
1481309332557097,4,1,0,1,1,-4,2,0
1481309332557097,1,0,-3,-2,-1,1,-2,-1
1481309332558099,-4,-1,1,-2,-1,2,-2,-1
1481309332558099,3,-2,-12,-2,-1,-4,0,-3
1481309332558099,0,2,9,-1,-1,-1,1,1
1481309332558099,-4,-1,-3,-1,-3,-2,-3,0
1481309332568098,0,-2,2,1,-2,-1,-2,1
1481309332568098,1,2,2,0,0,-2,3,1
1481309332577101,-3,-3,-3,-4,0,2,-3,-2
1481309332577101,-2,-2,-4,-2,-1,-2,-2,-1
1481309332583608,3,3,2,1,-2,-3,2,1
1481309332583608,-4,-2,-1,-2,-1,-2,-2,-1
1481309332599117,-2,-4,-7,-1,-2,3,-2,-2
1481309332599117,2,0,6,-1,3,-1,4,-1
1481309332606118,-1,1,2,1,-2,-4,0,-2
1481309332606118,-5,0,-2,-2,-2,1,-4,2
1481309332614117,0,-1,-2,3,1,-1,1,0
1481309332614117,0,-1,1,-1,-1,-3,0,-2
1481309332628119,0,-4,-4,1,1,0,-1,0
1481309332628119,-1,-1,-2,-1,1,1,0,-2
1481309332637119,-1,1,6,0,-4,-5,-2,-1
1481309332637119,-2,-2,-7,-3,-2,2,0,-2
1481309332644120,-1,1,1,4,0,0,-2,-1
1481309332644120,2,0,7,0,-1,-3,2,1
1481309332660121,-2,-3,-19,-5,-2,-2,0,-1
1481309332660121,0,1,5,3,0,-2,-2,1
1481309332666184,0,1,3,-5,-1,2,0,-2
1481309332666184,0,-1,-5,4,-3,0,0,-2
1481309332673196,-3,-3,-6,-10,-1,1,0,1
1481309332673196,-1,1,-1,3,0,-3,-3,0
1481309332688634,-2,-1,0,1,0,-4,0,-2
1481309332688634,0,-1,1,0,3,-2,0,-1
1481309332697135,-2,0,1,1,0,-1,-1,-3
1481309332697135,0,-2,-2,1,-4,-1,0,0
1481309332703136,-3,-2,-2,-5,2,0,-2,-2
1481309332703136,-2,-1,-2,-3,0,1,-2,0
1481309332719137,-1,0,4,4,0,-3,0,-3
1481309332719137,0,-1,-1,-1,-1,2,1,2
1481309332726139,0,-1,-2,0,-1,-1,-2,0
1481309332726139,-1,2,1,-1,-2,2,-2,-3
1481309332733137,-2,0,2,0,-1,0,-1,-2
1481309332733137,-1,-1,-2,-3,2,0,-2,0
1481309332748138,1,-1,2,0,1,2,1,1
1481309332748138,1,-4,-15,5,-3,-2,0,1
1481309332757141,-1,0,4,-2,-1,0,0,-1
1481309332757141,-3,-3,-1,5,-1,0,-1,-2
1481309332763140,-1,1,-1,-3,-4,1,-3,1
1481309332763140,-1,1,5,-1,0,-2,0,-1
1481309332779651,-1,0,-1,-10,-3,-2,-3,-1
1481309332779651,0,-1,-2,5,0,0,-1,-1
1481309332786150,0,-1,2,4,0,-1,0,-1
1481309332786150,-1,-2,-1,-6,-2,1,-2,-1
1481309332793652,0,-1,-1,1,0,-1,0,0
1481309332793652,0,-1,0,-6,-2,-1,-1,0
1481309332808159,-2,0,-4,-5,-2,1,-2,0
1481309332808159,-1,0,4,0,0,2,-1,-1
1481309332817161,-1,-1,-9,-1,0,3,1,1
1481309332817161,0,0,0,0,-2,-1,-1,-3
1481309332824161,0,-1,-2,-3,-2,1,0,-1
1481309332824161,-2,-2,0,4,1,-3,-2,-1
1481309332839163,-1,2,8,-1,-2,-1,-5,-1
1481309332839163,-2,-3,-5,15,10,2,0,0
1481309332846237,-2,0,-3,-3,-3,-1,0,0
1481309332846237,-1,-4,-7,-4,0,1,-1,2
1481309332854165,0,0,2,-2,-3,-1,-1,1
1481309332854165,-1,1,-4,-1,-5,0,0,-1
1481309332869166,-3,-1,-3,9,5,2,-2,-2
1481309332869166,0,-3,-3,-11,-4,-1,-2,-1
1481309332877163,-1,1,0,7,-1,-1,-1,0
1481309332877163,-2,-2,8,-8,-2,-2,-3,-2
1481309332883675,0,-1,-2,-3,0,-1,2,1
1481309332883675,0,-1,-2,0,2,-1,-1,0
1481309332899766,-2,-3,-4,-5,0,2,0,2
1481309332899766,-1,1,3,-3,-2,1,3,-2
1481309332905807,-3,0,1,-4,-1,-3,-3,-2
1481309332905807,-2,-2,3,2,-2,1,-3,-3
1481309332913778,0,-1,-5,6,-2,-3,1,-2
1481309332913778,-1,-2,1,7,2,-3,0,1
1481309332937810,1,2,4,-1,1,2,0,0
1481309332937810,2,0,0,-3,-3,4,2,1
1481309332938736,-1,-2,2,2,-2,-1,0,-2
1481309332938736,-2,-1,-1,-7,-1,-1,-1,-1
1481309332943737,2,-3,-10,3,-1,-2,-2,-5
1481309332943737,-2,1,3,-2,-1,-2,0,-1
1481309332959750,0,0,2,-4,1,0,-2,-1
1481309332959750,-1,-1,-1,-1,-1,3,0,-1
1481309332965809,-2,-3,-3,-2,-4,-1,1,1
1481309332965809,1,1,10,0,-2,1,-3,1
1481309332973810,-2,-2,-9,-5,-1,1,-1,-1
1481309332973810,-1,-1,-4,-2,-3,-2,-2,2
1481309332988770,-1,-1,0,0,1,-2,0,-1
1481309332988770,-1,-1,-1,0,0,-3,-1,-2
1481309332996929,-3,-2,-1,-5,1,2,-1,-1
1481309332996929,0,0,-3,2,-1,-3,-4,1
1481309333003932,-1,0,-1,3,0,1,0,1
1481309333003932,1,0,-3,1,0,-6,0,0
1481309333019863,0,-3,-3,4,-1,1,-3,-1
1481309333019863,-1,0,-3,-13,1,1,-1,0
1481309333025866,0,-1,-2,11,-2,-6,-2,0
1481309333025866,-1,-2,-5,5,7,3,-1,-4
1481309333041949,1,2,0,0,-3,-3,-1,0
1481309333041949,-2,0,0,-1,-3,1,-1,-1
1481309333048884,0,-3,0,-9,-5,-3,-3,0
1481309333048884,-2,0,-5,-1,0,1,-1,0
1481309333056933,0,-2,6,8,2,3,1,-1
1481309333056933,-2,-4,-15,-8,-2,-3,-3,-1
1481309333063933,1,2,0,3,1,-2,1,0
1481309333063933,-1,-2,-1,-2,-3,-3,-1,-1
1481309333079444,-1,-2,-9,-7,1,1,-4,1
1481309333079444,0,2,4,4,2,-2,0,0
1481309333086443,-2,0,6,-2,-2,0,0,2
1481309333086443,-1,-4,-11,1,-4,7,2,-2
1481309333102339,0,2,4,2,-2,-5,-1,-1
1481309333102339,0,-2,0,3,0,0,1,-2
1481309333108299,-2,-2,-6,-28,-4,2,2,1
1481309333108299,-1,-1,1,25,8,-1,1,0
1481309333116305,-2,-1,0,-11,-3,0,-1,-2
1481309333116305,1,-3,2,4,-1,3,0,-1
1481309333123310,1,0,-2,3,1,-1,0,-2
1481309333123310,1,0,1,-3,-2,-3,0,0
1481309333139240,-3,-1,-2,-3,1,-5,-1,-1
1481309333139240,1,0,5,10,4,-2,-1,-1
1481309333146310,-2,-3,0,-10,-3,0,-2,-1
1481309333146310,-1,0,5,2,1,-1,1,0
1481309333162241,-1,-5,-8,14,-2,-1,-5,-2
1481309333162241,-2,1,4,-11,-2,1,1,0
1481309333169240,-1,0,-2,7,1,-1,-2,-2
1481309333169240,1,1,1,-2,-1,1,2,1
1481309333177240,1,1,7,-8,0,3,2,1
1481309333177240,0,-1,-4,4,1,-4,1,1
1481309333183750,-2,-3,-2,8,-1,-1,1,-2
1481309333183750,-5,-1,-4,-8,-1,-1,-3,-1
1481309333199762,1,-1,0,4,1,-2,3,0
1481309333199762,3,2,0,5,-3,6,0,-1
1481309333213829,0,1,-1,1,-2,0,-2,1
1481309333213829,-1,1,0,-5,-5,3,-1,-2
1481309333222758,-1,-1,-2,-2,-1,-2,-2,-1
1481309333222758,-3,-2,-3,-1,-1,-4,-1,-2
1481309333228757,-1,-1,-3,4,-2,-3,-2,-1
1481309333228757,-2,1,0,-5,3,-2,0,0
1481309333237758,-2,-1,0,9,-2,-2,-1,0
1481309333237758,-1,-2,-2,-5,-2,1,-1,0
1481309333243762,0,2,-1,0,1,-8,-1,-2
1481309333243762,-3,-3,-3,-6,-3,4,-3,-2
1481309333259765,-2,1,-1,5,0,1,-2,0
1481309333259765,-1,-3,-1,-3,-2,2,-1,0
1481309333265854,0,-3,-3,-16,-4,-1,-2,-2
1481309333265854,0,0,-3,2,0,-5,-2,2
1481309333282782,0,2,-1,-24,-3,-1,2,-1
1481309333282782,1,1,1,22,3,0,-1,-2
1481309333288782,-4,-2,-2,4,15,-7,-2,-1
1481309333288782,-1,-3,-7,-23,-7,-1,2,0
1481309333297411,-2,0,0,-6,-1,2,3,1
1481309333297411,2,0,-1,-35,4,2,1,-2
1481309333303411,-1,-1,3,5,-2,2,-1,-2
1481309333303411,-1,-2,-1,9,4,-2,-2,-1
1481309333320414,-1,0,-2,-1,-8,-5,-6,-1
1481309333320414,-1,-1,-3,-4,-3,-5,-2,-1
1481309333326417,0,0,-7,-9,-4,-2,1,-1
1481309333326417,-2,-1,7,12,2,-5,-3,-1
1481309333342416,2,0,-4,-15,-8,-5,-1,0
1481309333342416,-3,-2,-3,0,-4,-1,-3,-1
1481309333348484,1,-1,-1,-2,-4,-1,0,1
1481309333348484,0,-1,-3,-3,-10,-3,0,-1
1481309333357414,-1,-3,2,13,8,-2,0,-1
1481309333357414,-4,0,-5,-16,-6,-6,-2,1
1481309333371417,0,-2,2,20,7,-2,-3,-4
1481309333371417,-1,1,-1,-13,-2,1,0,-1
1481309333380026,-1,-1,-1,43,4,3,4,0
1481309333380026,-6,-5,1,-14,0,-3,-5,-4
1481309333386528,-1,-1,-1,20,-1,2,0,-3
1481309333386528,-1,-3,0,-5,-3,1,1,0
1481309333402726,2,1,-4,-26,0,2,0,-1
1481309333402726,0,0,4,10,-10,-1,1,0
1481309333408728,-1,1,3,-2,2,1,1,1
1481309333408728,0,0,-4,5,9,-1,-1,-1
1481309333417727,0,-1,4,-7,-4,-2,-1,0
1481309333417727,-3,0,7,13,-7,-3,2,-1
1481309333430728,-2,-5,-14,-23,2,6,2,0
1481309333430728,4,3,12,18,4,-1,0,-3
1481309333439730,-2,0,7,-10,3,9,1,-1
1481309333439730,0,-4,-1,14,7,6,0,-3
1481309333445731,1,2,13,-10,-3,-2,0,-1
1481309333445731,-1,-2,-4,7,-4,0,-2,-2
1481309333462730,-4,-4,-11,12,-1,-4,-3,-2
1481309333462730,1,1,5,-5,-2,-3,0,2
1481309333468730,-3,-2,-11,-1,-7,2,-2,-1
1481309333468730,-2,-2,-4,-10,-3,3,-1,0
1481309333492258,-2,0,3,-2,-2,0,0,-3
1481309333492258,-1,1,-7,4,2,-1,0,-1
1481309333492758,-4,-1,3,-8,-5,0,-2,1
1481309333492758,-1,-3,-16,3,0,10,1,-1
1481309333500267,-1,-2,8,8,-2,-6,-4,-4
1481309333500267,3,1,-8,-9,-3,-2,0,-1
1481309333506265,0,-2,-7,3,-1,0,-1,-2
1481309333506265,-2,1,7,4,-6,-7,-1,-1
1481309333522266,-3,-3,-7,3,7,4,-2,-2
1481309333522266,-4,-4,-1,-20,-3,1,1,-1
1481309333528267,0,-1,1,-6,-8,-7,0,-1
1481309333528267,2,-1,2,15,13,-6,1,1
1481309333543269,0,-3,-6,-9,-9,0,-3,1
1481309333543269,-2,1,-2,12,3,-1,1,-1
1481309333551270,0,2,5,-9,-5,2,-2,1
1481309333551270,-2,-1,3,-6,-5,-3,0,-1
1481309333567271,-1,-2,-7,-4,1,4,2,0
1481309333567271,1,-2,-1,12,3,1,0,0
1481309333567271,-2,0,11,-5,0,-1,-3,-1
1481309333567271,-3,-6,-30,-8,-6,3,-1,2
1481309333582777,1,0,4,1,1,2,0,-1
1481309333582777,-1,1,-3,-3,0,-2,-3,-1
1481309333588777,-2,-1,0,3,-4,0,-1,-2
1481309333588777,1,3,13,4,-2,-1,-1,-2
1481309333603285,0,-1,-2,-22,12,-7,-2,-1
1481309333603285,0,-2,-6,7,1,-3,0,1
1481309333611287,0,-1,3,1,1,3,-1,1
1481309333611287,-1,-2,0,0,-4,-9,-3,-2
1481309333627286,0,0,2,11,-7,6,1,0
1481309333627286,-1,-1,7,-3,2,0,-3,-4
1481309333627286,-3,-2,-5,5,10,0,0,1
1481309333627286,-2,-1,0,-16,-6,-4,0,-2
1481309333642288,-1,0,0,11,2,-2,-1,0
1481309333642288,-2,-3,-5,-12,-9,-5,-3,-2
1481309333648288,1,1,-1,4,-2,2,0,-1
1481309333648288,0,-2,1,-6,3,6,3,0
1481309333663289,-1,0,1,0,2,-4,-1,-1
1481309333663289,0,-1,-8,-9,2,-7,-3,0
1481309333671289,1,-2,-8,14,2,3,2,0
1481309333671289,-1,0,5,-4,-3,1,-4,-1
1481309333686796,-2,-1,3,-2,0,-2,0,0
1481309333686796,0,-4,0,-4,-1,-1,-2,-1
1481309333687797,0,-1,6,13,-3,2,1,-1
1481309333687797,-1,-1,-8,-5,3,-2,-1,0
1481309333702305,-1,0,7,-3,-3,3,-1,0
1481309333702305,1,1,-15,6,-1,0,1,0
1481309333708305,-2,0,1,-16,-11,-8,-4,-1
1481309333708305,2,1,7,3,-1,8,3,3
1481309333723305,0,-4,-9,7,-1,-1,-1,0
1481309333723305,-2,0,1,-3,0,-1,-1,-1
1481309333731306,-1,0,0,10,4,-2,-1,1
1481309333731306,1,1,-1,-5,1,-2,-2,-3
1481309333746307,0,0,-3,-11,-10,-5,-2,-1
1481309333746307,0,-2,4,9,1,6,1,-1
1481309333747307,-1,-5,-8,-10,0,-2,2,-2
1481309333747307,-4,-1,-3,-2,-1,-2,0,-1
1481309333762307,0,1,2,1,0,0,0,-1
1481309333762307,-2,1,5,-11,-3,-3,1,2
1481309333768309,-3,0,-8,2,9,1,-1,-1
1481309333768309,0,-3,-4,-7,-4,-5,-3,0
1481309333783815,-3,2,5,8,-1,-4,-4,-3
1481309333783815,-1,-2,-4,-6,2,-1,1,1
1481309333791316,0,0,1,-2,-6,1,-3,0
1481309333791316,-1,-2,-3,6,1,-1,0,0
1481309333806818,-2,-3,-4,-11,0,1,3,0
1481309333806818,0,-1,4,6,-2,-3,-3,-2
1481309333807829,-2,-2,-3,14,4,1,1,1
1481309333807829,-2,-1,1,-7,-2,-1,-4,-1
1481309333823321,0,0,1,-1,-2,-2,0,1
1481309333823321,-2,-2,0,-4,1,2,0,-2
1481309333829822,0,0,-5,-16,-4,-4,-1,1
1481309333829822,2,2,2,7,1,1,-1,-3
1481309333843823,-1,-3,-4,-13,-1,1,1,-1
1481309333843823,2,2,3,35,3,-1,-1,-2
1481309333851324,-2,-4,1,-12,-5,5,-2,-2
1481309333851324,-1,1,0,-13,3,-1,-1,0
1481309333867326,0,-2,-5,7,2,1,0,-1
1481309333867326,0,2,0,-11,-3,-2,2,0
1481309333867862,-1,-1,0,8,3,-3,-2,2
1481309333867862,-4,0,-1,-1,-1,-1,0,0
1481309333889328,0,2,2,1,2,-1,-4,-1
1481309333889328,-3,0,-1,-6,-3,2,-4,-1
1481309333890329,2,-2,-2,-1,1,-6,-2,-1
1481309333890329,-1,-2,1,-4,1,-3,1,-1
1481309333903830,-1,0,-1,-7,-6,0,1,-1
1481309333903830,-2,-4,-3,13,3,2,1,-1
1481309333911332,0,3,0,-4,3,-1,1,-1
1481309333911332,2,-1,1,8,1,1,-2,0
1481309333926834,-2,-3,-4,-7,0,1,2,-3
1481309333926834,-2,-6,-2,-9,-5,-1,1,2
1481309333927834,2,0,-1,7,2,1,-2,-2
1481309333927834,-1,0,-3,3,-2,-7,1,1
1481309333942835,-4,-1,-2,14,4,2,-4,-1
1481309333942835,-1,1,-1,-22,-6,1,0,-1
1481309333948837,-2,-1,-7,3,-7,-1,0,-3
1481309333948837,-1,-1,2,-3,-3,2,0,-1
1481309333963839,-2,-4,-4,-5,-2,-1,-1,0
1481309333963839,1,1,2,14,3,3,0,1
1481309333971339,-1,2,2,-15,-3,-7,-1,-1
1481309333971339,1,2,0,-1,2,-3,-3,-2
1481309333986841,-1,-3,-1,1,-4,-5,2,1
1481309333986841,-1,0,-3,-2,1,-2,-2,0
1481309333987841,0,-2,-1,-2,-1,1,0,0
1481309333987841,-4,-1,0,9,1,0,1,-3
1481309334002843,0,-1,-2,-3,0,2,-2,-1
1481309334002843,-2,-1,1,-3,-3,0,-5,-2
1481309334008845,0,0,-2,-2,-3,0,1,0
1481309334008845,-2,-2,-1,-8,-2,1,-1,1
1481309334023846,-3,-2,-4,9,0,9,3,-2
1481309334023846,1,1,1,-16,-3,-5,-1,-1
1481309334031347,-1,0,2,5,0,2,0,1
1481309334031347,0,-1,1,8,0,-2,-2,-1
1481309334046849,2,1,-1,8,-6,-2,-5,1
1481309334046849,-2,-2,-4,-24,-5,-2,2,0
1481309334047849,-2,-1,1,10,7,0,1,-4
1481309334047849,0,0,-6,15,-9,-3,-1,-2
1481309334062850,-1,0,1,2,10,-1,-1,-1
1481309334062850,0,0,2,6,1,-1,3,0
1481309334068851,-1,-2,-2,-5,-5,0,-4,-2
1481309334068851,0,2,1,-10,-5,7,3,0
1481309334085355,1,1,0,-4,2,-3,-2,-1
1481309334085355,-3,-2,2,3,0,-4,1,-1
1481309334091354,-1,0,-4,-8,-2,-5,-1,0
1481309334091354,-3,-3,0,1,2,-3,-4,-1
1481309334106857,-1,0,0,-11,-1,-3,-1,-2
1481309334106857,1,0,-2,10,4,-7,-3,1
1481309334107856,-2,-1,6,20,3,15,-16,-3
1481309334107856,-1,-1,0,-9,2,-4,28,0
1481309334129359,-1,-2,-6,-11,-4,-5,-19,-2
1481309334129359,-3,-3,-2,-3,-7,-3,-4,-1
1481309334130359,-2,1,0,31,9,-2,6,0
1481309334130359,-2,-1,-3,-9,-5,-2,-29,-3
1481309334143861,2,2,3,6,4,1,32,3
1481309334143861,-1,-1,-1,-5,-5,1,4,0
1481309334151362,0,1,1,-12,-4,-4,-5,-1
1481309334151362,0,-1,0,-5,-1,8,-1,0
1481309334166864,-2,-5,-1,-5,-4,-4,-21,0
1481309334166864,3,2,1,20,3,11,27,1
1481309334167864,-4,-5,-8,-10,-1,-14,7,-1
1481309334167864,-1,-1,2,0,4,-13,1,0
1481309334189367,-1,1,-1,0,-4,0,-6,-2
1481309334189367,1,1,-1,-9,-1,3,2,-2
1481309334196368,-1,-4,-3,-5,1,0,-13,-1
1481309334196368,1,-1,1,4,-5,13,-1,-1
1481309334205369,5,3,-1,-5,-7,2,9,-1
1481309334205369,-17,-9,-4,0,10,-7,-9,-5
1481309334211370,2,1,-4,0,-4,1,2,2
1481309334211370,1,-3,3,-21,-1,-7,-10,-1
1481309334226872,-3,0,1,12,4,0,-16,-2
1481309334226872,1,-4,-2,14,-6,2,2,0
1481309334227872,0,2,4,-3,2,1,19,-2
1481309334227872,0,-3,-4,-1,-3,2,5,1
1481309334249875,-1,-3,-3,-2,2,-2,-11,-4
1481309334249875,4,3,-1,-3,-1,-3,-2,-4
1481309334250375,-1,-1,0,8,-2,-12,-8,-2
1481309334250375,2,2,-1,21,0,-6,2,0
1481309334265376,-1,0,3,-3,-3,2,10,0
1481309334265376,3,-1,-1,-4,-1,-3,-18,0
1481309334271377,-6,-3,-4,-11,-6,-4,-2,-1
1481309334271377,-4,-3,-4,-5,0,4,-1,-1
1481309334286379,2,1,-1,-1,-2,-1,-2,0
1481309334286379,-1,-2,2,9,0,4,4,2
1481309334293880,1,-2,0,-13,-2,6,-7,-2
1481309334293880,-3,-2,-2,11,1,-6,-8,-4
1481309334309382,1,0,1,0,5,1,19,4
1481309334309382,1,0,-2,-10,-3,1,-6,-3
1481309334310383,-2,-1,0,0,-1,0,1,-2
1481309334310383,-3,-1,0,3,1,-1,8,2
1481309334325884,-3,1,1,-3,-7,-6,-1,-2
1481309334325884,-9,-2,-2,7,5,-14,-29,-4
1481309334331384,-3,-4,-2,-9,8,-4,27,0
1481309334331384,5,0,-3,-5,1,-27,3,-2
1481309334346387,-2,-1,2,2,-2,-8,1,1
1481309334346387,2,4,0,3,-9,-7,6,0
1481309334361888,1,0,-1,2,-4,-2,-29,-3
1481309334361888,-5,-5,-4,-5,-2,8,-1,-1
1481309334369389,-6,-6,-3,9,2,5,4,-1
1481309334369389,5,0,2,-13,0,9,-22,0
1481309334370389,1,4,2,-3,-1,13,39,1
1481309334370389,-4,-1,-1,-1,-1,11,-3,-4
1481309334385392,-1,2,-3,-3,-2,39,-2,0
1481309334385392,14,7,2,3,0,41,-3,2
1481309334391393,-10,-12,-4,3,1,12,-2,2
1481309334391393,6,8,3,-12,-2,-5,-6,-3
1481309334407900,-8,-7,-4,6,4,-45,1,-3
1481309334407900,-5,-7,-4,-10,-2,-35,0,-2
1481309334413895,7,2,0,-8,-6,-16,-1,2
1481309334413895,0,2,-2,2,-2,-12,-18,-1
1481309334436898,4,3,7,-4,-6,21,27,7
1481309334436898,0,-1,-4,11,1,-13,11,2
1481309334437898,0,-1,-5,-7,-3,-13,-33,-1
1481309334437898,-11,-3,2,5,1,8,42,0
1481309334445400,2,1,-1,-8,4,2,-13,-3
1481309334445400,-6,-4,-1,5,8,11,12,-4
1481309334451400,4,3,1,12,-15,19,3,5
1481309334451400,-3,2,-3,-7,1,9,-4,-7
1481309334466401,5,-4,-5,-13,0,-8,-40,-6
1481309334466401,-24,-5,5,3,0,20,56,1
1481309334473903,2,-3,-2,-8,-3,-6,-20,-4
1481309334473903,-4,-3,-1,13,12,11,7,0
1481309334489405,5,1,3,-7,-23,36,0,1
1481309334489405,1,1,-3,5,6,37,-8,-1
1481309334490405,-2,0,1,-4,-1,43,-13,-3
1481309334490405,4,-2,-2,-1,-2,-29,42,6
1481309334505407,-12,-5,-5,-5,5,-60,-28,-4
1481309334505407,6,0,-2,-5,-7,-44,19,4
1481309334511408,-4,0,1,-3,-1,-33,10,0
1481309334511408,9,1,-1,6,0,-15,-23,-2
1481309334526409,-1,3,-2,-6,6,10,3,-1
1481309334526409,0,1,-6,-3,-4,-17,-5,-5
1481309334533910,2,1,7,0,2,7,5,0
1481309334533910,-2,-1,1,1,-7,1,-15,2
1481309334548917,7,2,-3,-5,5,-35,-2,3
1481309334548917,-10,0,3,0,-5,0,4,-3
1481309334549917,-5,-7,-1,-24,-9,6,4,-3
1481309334549917,-1,0,3,26,10,10,-12,-1
1481309334564918,-1,-3,-3,-13,-6,15,-20,-1
1481309334564918,13,-1,0,-1,-1,18,45,1
1481309334570920,-4,-2,-4,-2,4,-6,-14,-1
1481309334570920,-4,-3,-5,-10,-9,5,-9,-1
1481309334585920,-3,0,3,22,0,17,10,-6
1481309334585920,2,2,-3,-19,11,11,-18,3
1481309334593921,-1,-2,-2,17,-12,-6,6,-2
1481309334593921,-2,-1,0,-8,1,26,-5,0
1481309334608921,-2,-3,-1,7,3,27,12,0
1481309334608921,-1,-1,0,-12,-13,-4,-22,-1
1481309334609922,0,1,-5,13,9,-41,3,-2
1481309334609922,3,4,5,-2,-4,-8,-27,-2
1481309334625435,-2,1,4,-3,-7,-23,50,5
1481309334625435,-1,-6,-3,0,15,-7,-14,-4
1481309334631438,2,2,3,3,-9,21,-3,1
1481309334631438,-1,-2,-1,-4,1,-1,5,-1
1481309334647942,-3,-2,-1,4,-2,4,-7,-3
1481309334647942,2,0,2,0,-6,-10,4,-2
1481309334653972,-2,0,-2,2,6,-6,0,0
1481309334653972,-4,-2,-1,-8,-2,9,-2,0
1481309334669023,-1,-1,-4,7,3,-11,-1,0
1481309334669023,-1,0,1,-3,-11,-7,-20,0
1481309334669944,-4,0,0,-4,4,-4,-2,-4
1481309334669944,-1,-1,-1,-15,-6,1,4,0
1481309334684946,-2,-3,0,23,12,-3,-13,1
1481309334684946,-3,-2,-7,-3,-9,0,-10,-2
1481309334690948,0,1,1,-7,1,15,2,-1
1481309334690948,-2,-1,-1,-8,3,23,9,-2
1481309334722454,1,2,3,7,2,-7,-4,0
1481309334722454,-2,1,-3,-6,1,-14,-6,1
1481309334723452,0,-2,-4,-5,1,-16,4,-1
1481309334723452,-1,-1,-8,10,4,-24,2,-1
1481309334729452,0,-3,-5,-17,-1,-11,-2,-1
1481309334729452,0,0,4,4,-1,-2,-3,-1
1481309334730452,3,2,1,-2,0,-1,0,-2
1481309334730452,-2,-5,-3,0,-2,-1,-5,-3
1481309334752932,0,-2,0,-17,-12,15,-1,-3
1481309334752932,-1,0,2,12,11,13,-12,0
1481309334753932,-2,-2,-5,1,2,3,10,0
1481309334753932,5,0,2,-2,-11,-3,-5,-1
1481309334765931,-3,-3,-5,-7,-13,10,5,-2
1481309334765931,-1,0,2,1,13,1,-8,0
1481309334773932,1,2,4,5,-7,21,-1,0
1481309334773932,-2,1,-2,10,0,-9,1,0
1481309334788934,-3,-3,-6,-12,5,-10,-10,-4
1481309334788934,1,0,-3,7,-6,-1,-2,-1
1481309334789932,-5,-5,-1,-1,8,-5,-1,-1
1481309334789932,-1,-2,-16,-9,-9,-3,-3,-1
1481309334804935,0,1,1,2,-1,2,-1,-2
1481309334804935,0,-4,-4,4,5,3,2,-2
1481309334810936,0,2,0,-26,-4,-3,1,0
1481309334810936,0,-1,2,32,12,-4,-3,-2
1481309334826441,-4,0,-6,-1,0,5,3,-1
1481309334826441,2,1,-3,-22,-12,-6,-2,0
1481309334833941,-1,-4,-5,12,2,-3,-4,-1
1481309334833941,-3,1,3,-4,-1,-3,-1,1
1481309334850949,2,2,0,3,1,0,1,0
1481309334850949,0,2,1,-5,-3,-2,-1,-2
1481309334851948,1,-2,1,8,3,-2,-2,1
1481309334851948,-1,-1,5,4,-7,-5,1,-2
1481309334864950,-2,-1,-1,6,0,-4,-4,-2
1481309334864950,1,1,1,-2,5,-1,-1,0
1481309334878950,1,1,3,12,6,-8,-27,-3
1481309334878950,2,1,-1,-10,-4,-6,33,5
1481309334885950,0,-2,-1,-4,-3,-4,-4,1
1481309334885950,-3,-6,-3,4,5,5,0,-4
1481309334893953,0,0,-16,-4,-10,-5,-4,0
1481309334893953,-1,1,8,-9,-7,11,-9,-2
1481309334916952,0,1,4,-2,9,-5,2,1
1481309334916952,0,-2,-2,11,-2,-11,-1,2
1481309334917952,-1,0,2,-11,4,3,9,-1
1481309334917952,-1,-2,0,13,-1,-6,-11,-3
1481309334925460,-1,1,0,-5,6,22,8,0
1481309334925460,-2,-3,3,-6,-12,4,-6,-1
1481309334931460,-1,0,-2,4,-2,-2,5,0
1481309334931460,1,-1,-1,-8,4,1,-3,1
1481309334945967,-1,1,-5,4,-1,7,-7,0
1481309334945967,0,1,-4,1,1,39,1,1
1481309334953968,-2,0,2,-6,-9,23,2,1
1481309334953968,0,0,1,-1,10,23,-2,-2
1481309334968972,1,2,3,4,-6,-15,-1,1
1481309334968972,-2,-4,-5,-5,-8,-4,1,-2
1481309334969969,0,-3,-14,-20,-5,-38,0,-2
1481309334969969,1,0,5,35,5,2,-9,-1
1481309334984970,-5,-6,-17,-26,-17,-33,-4,-1
1481309334984970,-1,3,6,5,6,-26,2,-1
1481309334990970,0,-1,2,-1,-1,-33,-1,-3
1481309334990970,-1,-2,-4,-10,-7,-12,0,0
1481309335005971,1,-2,0,6,0,24,4,1
1481309335005971,1,-2,2,-3,-5,6,-1,-1
1481309335013973,-2,-2,-9,8,7,20,6,-1
1481309335013973,-2,-2,-1,-14,-3,1,-3,-4
1481309335029549,-2,1,6,8,4,-2,2,-1
1481309335029549,0,-2,-4,1,-9,-14,-7,-3
1481309335030049,0,1,9,-2,-1,3,-1,-1
1481309335030049,-2,-2,0,4,9,2,1,1
1481309335045071,-1,-4,-13,-5,-1,-12,-3,-3
1481309335045071,-1,2,1,9,8,-15,3,4
1481309335051126,-2,-1,8,0,-9,0,-2,0
1481309335051126,-1,-2,-4,-4,2,-10,-2,0
1481309335066126,-1,0,7,-10,-2,-6,-1,-1
1481309335066126,-2,3,4,12,8,0,0,-3
1481309335082060,0,-2,1,-1,-2,22,7,-1
1481309335082060,-5,-1,-1,-9,-3,2,-3,-1
1481309335089129,2,0,-6,11,11,3,0,-1
1481309335089129,-1,-3,-6,-17,-7,25,2,-2
1481309335090059,-2,0,6,14,-1,23,9,2
1481309335090059,-1,-3,-4,-11,-15,-4,-4,0
1481309335105059,0,1,1,18,1,12,3,2
1481309335105059,-2,-2,-4,-7,8,-3,-2,-2
1481309335111057,-1,-1,-2,14,10,-5,-2,-1
1481309335111057,-1,1,1,-12,-4,1,2,-1
1481309335126568,-3,-4,-15,-1,0,-7,-2,-3
1481309335126568,1,1,6,4,-4,6,-3,-1
1481309335134068,-3,-2,2,-9,-3,-5,-1,-1
1481309335134068,0,-2,-13,6,-4,-4,0,0
1481309335156590,-2,1,7,-8,4,2,2,0
1481309335156590,-2,-3,2,8,4,1,2,-1
1481309335157589,0,-2,-3,-6,0,-2,-4,-3
1481309335157589,-2,0,-2,-7,1,-4,-2,0
1481309335165590,0,-1,7,3,-5,3,1,0
1481309335165590,-1,0,-7,-6,-5,-3,1,0
1481309335171592,-1,1,-4,-3,-4,-8,-3,-1
1481309335171592,-2,0,4,-2,6,10,0,-2
1481309335186612,4,3,6,14,6,4,3,1
1481309335186612,0,-1,-15,-5,-10,-10,-1,0
1481309335193592,3,1,4,6,-2,-3,-5,-1
1481309335193592,0,-4,-15,-11,2,-2,-4,-2
1481309335209594,-1,1,9,-10,-7,11,1,-2
1481309335209594,-4,-4,-15,-1,-15,-4,-4,0
1481309335210593,-2,-3,-5,8,10,0,1,-1
1481309335210593,-2,-1,6,7,-3,-4,0,-2
1481309335225172,-2,-2,-4,-23,-11,-6,-8,-2
1481309335225172,-4,-3,2,22,24,-8,-3,-1
1481309335231674,-2,-2,-2,-8,-13,0,-4,-1
1481309335231674,0,-1,3,-3,5,-8,-1,0
1481309335246285,-1,-3,0,1,14,10,1,-2
1481309335246285,1,4,10,-9,3,-1,0,-3
1481309335253250,2,4,-2,5,14,-3,0,0
1481309335253250,-1,-2,5,6,6,10,3,-1
1481309335269181,-1,-1,-1,2,-26,-7,1,0
1481309335269181,-3,-5,-3,-1,-6,4,2,-1
1481309335276181,1,2,11,5,-8,-5,-2,2
1481309335276181,0,-11,-41,-22,-14,-8,-4,0
1481309335285182,-1,-2,5,11,12,-7,-3,0
1481309335285182,1,2,5,0,-17,4,-1,-1
1481309335291181,1,4,0,-1,10,-11,4,2
1481309335291181,0,4,14,5,9,-2,3,1
1481309335306183,-1,-5,-5,-3,-17,-8,-5,-1
1481309335306183,-2,-3,-4,1,-5,-6,-5,-4
1481309335313183,-3,-2,-7,-7,-1,-2,0,-1
1481309335313183,0,0,5,2,-15,-2,-6,-4
1481309335328690,-2,-2,-1,-2,-4,14,12,-3
1481309335328690,2,1,0,-14,-18,-3,-13,0
1481309335335692,-13,-4,0,8,-13,24,9,-6
1481309335335692,0,-1,-1,1,2,-4,3,2
1481309335352016,0,4,0,3,-6,-5,-5,0
1481309335352016,0,-1,-3,-5,12,-1,-2,0
1481309335352935,0,-1,2,-3,-7,-4,-4,-3
1481309335352935,-2,-1,0,-1,-10,-2,-11,-3
1481309335366003,-7,-6,-9,0,-10,-4,-1,-4
1481309335366003,3,5,2,4,7,-27,3,5
1481309335374006,9,-3,-5,-6,24,-4,-2,0
1481309335374006,-5,0,7,-1,8,8,-5,-2
1481309335389008,9,4,-3,4,13,-13,-5,2
1481309335389008,-9,-11,-3,-3,-8,9,-3,-5
1481309335395935,-3,-6,-9,-4,-22,-8,-2,-1
1481309335395935,1,3,4,-3,12,-9,-10,1
1481309335412939,-5,-3,-3,-5,4,8,4,-4
1481309335412939,-1,-2,8,3,-10,6,22,1
1481309335413936,-1,1,-1,-3,18,-12,-10,-2
1481309335413936,-6,-3,1,6,-5,-12,-11,-2
1481309335427445,-3,0,5,-2,-11,8,7,0
1481309335427445,0,1,-10,-1,23,1,-7,-2
1481309335433946,-2,-3,2,-1,43,24,-4,0
1481309335433946,2,3,0,-2,21,23,16,1
1481309335448453,0,-1,-1,5,37,12,-6,0
1481309335448453,-2,-2,2,-5,2,3,5,-4
1481309335456525,-1,2,6,1,-39,-11,-1,2
1481309335456525,6,2,-2,-13,-25,-3,11,3
1481309335471451,-3,-1,-4,7,-11,9,9,3
1481309335471451,1,5,7,-1,-11,0,-12,2
1481309335472453,4,3,1,2,2,-8,24,2
1481309335472453,7,1,8,6,40,6,-4,0
1481309335486498,2,0,5,-6,32,7,-14,-4
1481309335486498,1,-2,-4,-2,19,26,25,3
1481309335493454,0,-1,-4,1,23,24,-8,0
1481309335493454,-4,-5,-7,2,12,9,-1,-2
1481309335509454,0,0,-7,-3,23,4,-5,-1
1481309335509454,-2,1,-5,-1,26,1,-42,2
1481309335516456,-2,-7,-5,-6,11,29,71,-2
1481309335516456,-10,-6,-9,3,15,21,-4,0
1481309335531986,-1,0,-4,-1,26,6,-13,-2
1481309335531986,-2,0,-4,1,42,-4,-2,-1
1481309335532964,-4,-3,-8,0,1,4,-18,-2
1481309335532964,0,2,-6,-7,22,0,-16,2
1481309335546099,-4,-4,-6,6,6,5,7,1
1481309335546099,-2,-2,-6,-6,10,21,-4,-1
1481309335554038,0,-1,-10,-4,32,-4,-16,0
1481309335554038,-3,0,-4,4,24,-1,4,-3
1481309335569019,-4,-4,-10,-4,10,4,-7,1
1481309335569019,2,-1,-1,0,17,-1,1,-2
1481309335576017,-4,-5,-7,-5,1,-3,-12,-2
1481309335576017,-5,-3,-6,5,-16,-3,4,0
1481309335592019,-1,-2,4,-8,2,-4,4,-1
1481309335592019,-1,1,2,3,-8,6,8,-4
1481309335592019,-1,1,4,1,5,13,-4,-1
1481309335592019,-3,-3,4,0,-7,3,3,2
1481309335606090,0,0,-14,0,6,-3,-1,-1
1481309335606090,1,-1,4,1,7,-3,7,3
1481309335614036,-3,-1,-10,-3,-6,-23,-23,-3
1481309335614036,2,0,1,0,5,-4,3,-1
1481309335629103,-1,-1,3,1,19,-12,-3,1
1481309335629103,-4,-6,-4,-6,14,2,5,-1
1481309335636101,1,0,3,4,29,-9,-9,-2
1481309335636101,-1,1,3,3,19,3,1,-2
1481309335652196,-2,1,4,-4,-20,-6,-2,-1
1481309335652196,-1,0,-4,-2,-20,6,0,-1
1481309335652196,0,0,3,-2,-23,-2,-5,2
1481309335652196,1,1,1,1,-29,1,-3,-3
1481309335666152,-3,-6,-3,2,-16,5,3,1
1481309335666152,-2,-2,-6,1,-7,-7,-4,-1
1481309335674127,2,1,-2,1,-7,1,-4,0
1481309335674127,-1,-3,-1,0,-4,3,0,0
1481309335689132,1,4,4,-8,-6,-8,-5,-2
1481309335689132,0,-2,-2,8,16,-1,-2,-3
1481309335696126,-4,-3,3,-6,14,8,3,-1
1481309335696126,-2,-6,-12,-11,-13,-9,-6,-1
1481309335713128,2,2,11,5,11,4,2,1
1481309335713128,1,1,3,3,-2,-2,-4,-3
1481309335714129,1,0,-7,-7,-15,4,-2,1
1481309335714129,1,2,7,1,12,3,2,0
1481309335726208,-3,-1,-2,1,-7,11,1,-1
1481309335726208,-1,1,1,-3,-26,3,2,-1
1481309335733709,0,-1,5,0,-5,5,-1,-1
1481309335733709,0,2,2,3,-11,8,4,2
1481309335748294,1,-2,-4,4,2,-5,-4,-1
1481309335748294,-1,0,7,-2,13,-9,-3,-1
1481309335756367,-2,-1,-1,-9,13,-12,-3,-4
1481309335756367,0,-1,-2,8,11,6,5,-1
1481309335771366,-2,-4,-2,-6,5,7,-1,-4
1481309335771366,0,-1,-2,-8,17,3,0,-2
1481309335772295,1,0,-6,11,15,-10,-9,-3
1481309335772295,-1,3,0,-2,6,-18,-7,1
1481309335786400,0,-3,-6,3,-5,0,6,2
1481309335786400,-3,-2,-2,0,-9,1,-4,-1
1481309335793296,-1,-1,-2,-1,-12,-2,-2,-1
1481309335793296,-3,-5,-10,-4,-3,-6,-2,-4
1481309335808301,-2,-3,0,-1,-5,4,2,-2
1481309335808301,-2,-3,-9,3,-2,-9,-6,-3
1481309335816298,0,-2,-4,2,-3,1,2,1
1481309335816298,0,1,3,-9,-1,4,0,0
1481309335831891,-1,1,1,1,0,-6,-6,1
1481309335831891,-1,-3,-2,-6,-5,-18,-4,2
1481309335832891,-1,0,-6,9,9,2,0,0
1481309335832891,0,-3,4,5,-2,1,-2,-2
1481309335845657,-3,2,-3,-19,5,-5,-6,-2
1481309335845657,-3,-1,0,9,2,-1,3,1
1481309335853659,-1,-1,4,-3,2,4,0,-2
1481309335853659,0,-3,-10,-5,2,-2,-1,-3
1481309335868661,-1,-5,-1,-1,-7,4,5,0
1481309335868661,1,0,-3,-1,12,4,2,-1
1481309335875664,0,-3,2,-3,-12,8,5,3
1481309335875664,-1,1,-3,3,8,-26,-9,-5
1481309335891667,1,0,0,6,-2,-6,-3,-1
1481309335891667,-3,-1,-4,-5,-14,12,3,0
1481309335892661,1,3,2,4,-18,-7,0,1
1481309335892661,-1,-1,0,-5,-8,-4,0,3
1481309335906695,-2,0,1,0,3,3,-5,-3
1481309335906695,1,-1,-2,-2,-4,2,-1,-2
1481309335913663,-4,-1,4,2,12,-2,-2,0
1481309335913663,0,-1,3,1,4,-2,-5,0
1481309335928746,-1,2,5,7,8,2,1,2
1481309335928746,-1,-1,1,1,6,0,0,-2
1481309335936246,-1,1,-2,3,1,-8,-4,-4
1481309335936246,-2,-2,1,-1,5,9,1,-1
1481309335952340,2,0,0,1,-5,12,5,1
1481309335952340,-1,-1,-1,-10,3,-4,-3,1
1481309335952340,-2,0,1,3,-3,19,4,0
1481309335952340,1,-1,-2,3,-5,17,5,1
1481309335966338,-1,-1,-1,1,3,-5,-3,-2
1481309335966338,-1,-1,-7,-9,-11,5,0,1
1481309335973408,-2,-3,-14,-7,3,6,-4,-6
1481309335973408,-1,2,0,5,-4,3,0,1
1481309335988351,0,-1,-4,0,-4,-5,2,2
1481309335988351,1,1,6,4,3,-1,-2,-3
1481309335996339,-5,-2,0,-9,0,-2,-2,-3
1481309335996339,-2,0,-8,4,0,-15,2,-2
1481309336011339,-3,-3,-3,3,0,-7,0,0
1481309336011339,-1,-1,2,-6,-2,4,1,0
1481309336012341,1,2,3,11,-1,-12,-1,-1
1481309336012341,-2,0,4,-8,2,9,4,0
1481309336026347,1,0,1,-2,-8,-4,-2,1
1481309336026347,1,1,0,11,2,0,4,-1
1481309336033848,-1,-1,3,-5,-3,3,-3,2
1481309336033848,-1,-1,-9,-4,-4,-6,-1,-1
1481309336048855,-3,-1,6,8,6,-4,-4,-4
1481309336048855,-1,-4,-7,0,8,-28,-6,0
1481309336055855,0,-1,6,2,-2,0,2,1
1481309336055855,-1,0,1,-4,-9,13,4,1
1481309336071856,1,3,5,-3,-2,2,-6,-2
1481309336071856,-3,0,-6,5,-8,-6,-2,0
1481309336072857,-1,-2,3,7,3,4,-2,-1
1481309336072857,-1,1,0,-5,-1,1,1,3
1481309336085859,-2,-3,-5,-4,4,-7,-5,-3
1481309336085859,-1,4,5,0,11,1,-3,1
1481309336093857,2,0,-4,9,-11,1,2,1
1481309336093857,-2,-2,2,-3,-4,5,1,-5
1481309336108863,1,-2,-2,-8,-5,9,7,1
1481309336108863,-2,0,-1,-7,1,-9,0,-3
1481309336115928,-1,-1,-2,-2,-3,-2,-2,-1
1481309336115928,-1,-2,1,3,3,10,-1,-1
1481309336131971,-2,0,-7,0,2,-5,-3,-3
1481309336131971,3,-1,-2,-3,-13,0,3,1
1481309336132974,-1,2,0,-8,5,-14,-6,1
1481309336132974,0,-2,-2,4,-10,-3,-3,0
1481309336146604,0,0,7,-23,-7,6,-4,-1
1481309336146604,0,-1,2,18,0,10,1,0
1481309336153578,-1,-1,-4,-6,3,-16,-3,-4
1481309336153578,4,3,13,2,-3,20,4,5
1481309336168579,5,5,2,4,5,-4,-3,-1
1481309336168579,-2,-1,-6,-5,-6,1,0,0
1481309336176580,-1,-2,1,-7,1,2,-2,-1
1481309336176580,-2,-1,-4,4,8,-12,-2,-4
1481309336191582,-3,-1,-3,1,-5,1,3,3
1481309336191582,3,4,-2,-4,-3,12,3,1
1481309336199581,2,-2,-6,-5,-4,3,3,2
1481309336199581,-2,-5,-2,-9,-6,11,5,1
1481309336206586,0,-1,-5,20,6,-2,-4,-1
1481309336206586,-1,1,7,-3,-5,15,4,-2
1481309336213582,-3,-3,-4,2,-5,14,2,-2
1481309336213582,-1,0,-4,-4,0,8,-5,-4
1481309336228602,2,-2,-1,-19,-4,1,1,0
1481309336228602,-4,0,-2,19,6,-4,-3,0
1481309336236605,-7,-7,-2,-1,1,-1,2,-1
1481309336236605,-1,-2,-5,-12,-2,-4,-7,-3
1481309336251681,-2,-4,-2,-6,-8,2,6,3
1481309336251681,1,-2,2,5,4,6,-1,0
1481309336266750,-1,1,-1,4,-3,5,-1,2
1481309336266750,-1,-1,-2,-9,5,-20,-5,0
1481309336274679,-4,-3,-5,25,10,-1,-1,-1
1481309336274679,3,-1,2,-3,5,-14,-2,-1
1481309336274679,3,4,7,-1,-5,27,6,0
1481309336274679,-3,-1,3,1,0,-11,-3,0
1481309336288751,-2,-2,-10,-5,0,-2,-1,-3
1481309336288751,-3,-3,-4,-7,-7,1,-4,-1
1481309336295756,2,-2,-7,-14,1,-10,-4,-2
1481309336295756,-2,-3,-6,11,2,-2,1,1
1481309336311680,0,1,0,-1,6,4,1,-2
1481309336311680,-3,-3,-2,5,-2,-1,0,-1
1481309336318679,1,1,4,-2,8,-5,0,0
1481309336318679,0,-2,-4,-3,-8,0,-3,0
1481309336334762,2,1,2,7,-1,0,3,-1
1481309336334762,-3,-3,-4,-14,-7,1,-1,-2
1481309336335263,-2,1,6,-3,-1,-4,-1,-1
1481309336335263,-1,0,-7,-3,2,-4,0,3
1481309336348784,3,-1,5,2,-2,3,1,-1
1481309336348784,-3,-2,-4,-17,-7,0,0,0
1481309336355855,2,-1,-7,4,-3,-6,-1,-1
1481309336355855,-4,0,3,5,6,-4,-1,-2
1481309336370855,6,1,3,7,-7,1,0,1
1481309336370855,-10,-3,1,2,6,4,1,0
1481309336386857,3,-1,-3,1,0,-4,-4,-3
1481309336386857,-1,-1,2,2,1,1,2,-3
1481309336394785,0,-1,-5,-7,0,-3,-2,-1
1481309336394785,3,1,-5,-4,-4,-10,0,-1
1481309336394785,-2,-3,0,4,1,-1,-1,1
1481309336394785,1,1,1,1,-8,-4,0,-1
1481309336408789,-4,-2,-5,-7,-3,-5,-5,-1
1481309336408789,0,-2,-3,-5,2,-8,-2,-2
1481309336415858,-1,-2,-2,-5,-4,-3,0,-2
1481309336415858,1,-1,-2,8,27,4,3,0
1481309336431368,-10,-5,-2,-3,-8,0,-4,-3
1481309336431368,3,0,2,6,-4,0,1,0
1481309336438970,0,0,-2,-3,2,0,-2,2
1481309336438970,2,-1,-5,-5,-6,-3,-5,-3
1481309336453970,-2,0,-1,-10,-3,-8,-1,-1
1481309336453970,1,1,2,16,13,1,-1,0
1481309336454899,6,1,-4,-9,-12,-2,1,1
1481309336454899,-10,-3,2,5,-10,-2,-2,-3
1481309336468972,1,1,-2,-3,8,-2,-2,1
1481309336468972,-3,-2,0,-2,-8,-2,-2,0
1481309336475903,4,2,-1,9,7,-2,-3,-1
1481309336475903,1,0,-1,-2,-2,-3,-1,0
1481309336490961,-7,-4,-1,-1,2,0,0,-1
1481309336490961,6,2,1,-3,-5,8,-1,-2
1481309336498902,-4,-3,-2,6,8,-4,0,-2
1481309336498902,6,5,4,-6,-9,4,1,3
1481309336513902,-10,-6,-2,-9,-5,1,0,-3
1481309336513902,1,1,3,12,8,-2,-2,0
1481309336514903,-7,-4,-3,-9,-5,-4,0,-1
1481309336514903,-1,-4,-7,-1,1,2,-3,0
1481309336528914,5,3,0,3,-1,-8,-2,0
1481309336528914,-5,-3,-2,-8,-4,-2,-1,-1
1481309336544422,-1,0,-2,0,-1,-3,-4,-2
1481309336544422,1,3,3,-1,6,-4,0,-1
1481309336551422,1,0,-1,-6,-13,5,-1,-1
1481309336551422,-2,-3,2,9,2,13,6,1
1481309336558423,0,1,5,0,-6,14,3,-1
1481309336558423,0,-3,-4,-2,-4,-10,-4,0
1481309336574424,6,-2,-2,2,6,4,2,-1
1481309336574424,-13,-2,-2,-8,-2,0,-3,-1
1481309336575424,6,1,2,1,-4,2,-1,-1
1481309336575424,-7,-3,-1,-2,2,-1,-2,-2
1481309336588424,1,1,1,1,-7,-4,-3,-2
1481309336588424,4,2,1,-4,1,-1,-2,-2
1481309336596425,-4,-3,-2,10,2,0,2,-3
1481309336596425,0,0,-3,-7,-4,0,-3,-2
1481309336611426,6,2,2,0,2,3,1,1
1481309336611426,-1,-3,-2,-6,-6,6,2,-3
1481309336618426,-4,-6,-4,-3,-5,-8,-6,0
1481309336618426,-4,-1,-1,3,3,11,-2,-2
1481309336634433,-1,-1,-3,0,-1,-5,-1,2
1481309336634433,1,2,3,-5,2,1,4,-2
1481309336635434,0,-1,-4,-2,5,-4,-2,1
1481309336635434,0,-2,1,1,-10,1,2,-1
1481309336657444,6,5,-1,6,8,-7,-3,2
1481309336657444,2,4,-2,-3,-3,-8,-2,2
1481309336657444,-13,-8,-1,-3,1,-3,-2,-3
1481309336657444,4,1,0,2,2,0,1,-2
1481309336671450,-6,-4,-2,18,3,-1,0,-2
1481309336671450,10,1,-1,-10,-3,-7,-3,-1
1481309336678513,3,2,0,-4,4,1,0,-3
1481309336678513,-6,-3,-2,1,0,-3,-3,-1
1481309336694446,-3,-5,-2,-6,-3,-2,0,-1
1481309336694446,-3,-1,-3,1,-6,-11,-4,-1
1481309336695442,-3,3,3,2,6,-4,-1,1
1481309336695442,1,-1,-7,-1,-2,-9,-4,-1
1481309336708446,-1,1,-2,0,6,5,2,0
1481309336708446,-4,-7,-4,-6,1,-10,-5,-1
1481309336716525,0,-1,-2,-1,-3,-1,3,1
1481309336716525,4,2,4,-4,0,0,1,3
1481309336731526,-1,1,-2,10,4,2,0,1
1481309336731526,1,1,2,0,-5,4,0,-1
1481309336747115,3,0,-2,-2,0,-4,-2,-1
1481309336747115,-3,-1,0,2,7,2,0,-1
1481309336754117,-3,-1,-1,-2,-8,-4,0,-2
1481309336754117,0,-1,-1,3,6,3,1,1
1481309336755046,0,0,0,-1,-10,-4,5,0
1481309336755046,-1,-3,-5,4,0,-2,2,0
1481309336777046,-3,2,5,-8,-7,13,-1,-1
1481309336777046,-3,1,-4,5,1,-5,-1,-2
1481309336777046,1,0,1,-3,-5,6,-1,0
1481309336777046,-1,-1,0,-3,-5,-8,-1,-1
1481309336791048,-3,-5,0,1,-1,-6,-3,-4
1481309336791048,2,-4,1,-10,5,-5,-3,0
1481309336799053,-1,-2,-3,21,-1,4,-1,-1
1481309336799053,0,0,-1,-6,-1,-2,-1,-2
1481309336822641,-2,-1,1,-8,11,-6,-2,-1
1481309336822641,-1,-2,-1,4,-4,7,-3,0
1481309336823642,3,-2,-6,-8,-2,0,1,1
1481309336823642,-6,-1,16,9,-11,27,5,-3
1481309336828642,-3,-4,-22,-13,-1,2,-2,-3
1481309336828642,-3,0,0,5,-5,-2,0,2
1481309336836643,-1,1,-1,2,2,2,-1,0
1481309336836643,1,0,-4,-2,-2,-4,-3,2
1481309336851219,-6,-3,9,-9,-6,3,0,0
1481309336851219,0,-2,-3,-3,-7,1,-4,-2
1481309336858223,-2,-1,0,-1,-1,4,7,0
1481309336858223,-1,-1,-7,-14,0,-1,-2,-1
1481309336874221,0,-4,4,7,12,6,2,-1
1481309336874221,-3,1,-4,-3,-12,-1,1,0
1481309336875222,-6,-3,-6,-5,-3,-8,-7,-2
1481309336875222,1,-1,-7,-9,-3,-5,-3,-1
1481309336888292,3,3,2,3,5,-2,0,0
1481309336888292,4,3,3,6,-1,13,3,0
1481309336896294,-4,-1,4,-6,0,1,-1,-3
1481309336896294,-1,-1,1,7,-1,6,1,0
1481309336911223,-1,0,-9,6,-6,-3,-4,0
1481309336911223,0,-2,13,-17,11,-1,1,-3
1481309336919226,-4,-9,-50,-6,9,-8,-3,0
1481309336919226,1,2,6,7,-9,16,9,0
1481309336934803,-4,-1,8,-2,-10,-19,-7,-3
1481309336934803,-1,-1,2,8,6,-2,2,-1
1481309336935302,4,5,15,-5,-1,6,-1,0
1481309336935302,-3,-4,-13,-5,6,-10,-6,-4
1481309336948484,2,2,13,14,-2,-6,-2,1
1481309336948484,-5,-2,-20,-14,5,-4,-2,-1
1481309336956485,2,-1,13,7,-20,10,1,0
1481309336956485,-11,-4,-7,-2,4,-9,-6,0
1481309336971485,2,-1,-1,-4,11,-7,1,0
1481309336971485,-3,-5,-1,8,-12,0,-3,-2
1481309336978425,2,5,11,0,4,-4,-3,0
1481309336978425,7,6,-1,2,2,4,5,2
1481309336994414,-11,-17,-4,-5,-3,-3,-2,-4
1481309336994414,0,-1,-4,-1,-3,-5,-2,0
1481309336995414,-3,-5,5,-3,-1,14,3,-1
1481309336995414,5,4,7,0,-3,-7,-1,0
1481309337008415,2,4,-8,1,1,-4,-2,0
1481309337008415,0,-1,1,-4,-3,0,0,-1
1481309337024495,0,-1,-8,-2,1,-9,-1,0
1481309337024495,0,-5,-2,-7,4,-4,-4,-2
1481309337031496,1,-2,-5,7,-4,6,0,-1
1481309337031496,-3,-3,0,-8,-10,14,7,1
1481309337046587,1,3,-1,-5,1,-2,0,1
1481309337046587,-1,-1,1,-1,4,-4,1,1
1481309337054587,-2,0,-4,-5,-3,-1,-2,0
1481309337054587,2,2,3,2,1,-5,0,-2
1481309337055516,1,-1,3,-8,1,-1,1,-1
1481309337055516,-4,1,-2,21,5,-1,-1,0
1481309337068518,0,2,2,-4,-10,0,-1,-3
1481309337068518,3,2,-1,0,6,-9,-2,1
1481309337076519,-5,-6,-2,3,4,-4,-4,-2
1481309337076519,1,-2,5,-6,-8,-6,-2,-2
1481309337091520,3,3,0,-7,-8,-8,-5,2
1481309337091520,-6,-3,-1,13,17,7,3,-2
1481309337098590,0,-3,0,-4,-14,-6,-4,-2
1481309337098590,-3,-1,1,-5,2,2,3,-1
1481309337114520,0,-1,-26,-8,3,2,1,-3
1481309337114520,2,2,-2,-4,-5,0,-3,2
1481309337115520,-6,-11,2,3,2,-3,-2,-3
1481309337115520,2,-1,2,8,7,-5,-5,0
1481309337129035,-2,0,6,-8,-12,8,4,2
1481309337129035,2,2,-2,0,1,-6,-1,-1
1481309337136539,3,5,2,3,4,2,0,1
1481309337136539,-15,-9,-5,-4,-12,-3,-3,-4
1481309337151629,2,2,4,4,7,10,0,-3
1481309337151629,-5,-4,-3,0,-8,-4,7,0
1481309337158591,-1,3,5,-2,3,-1,-4,-1
1481309337158591,2,-2,-3,-3,-9,4,2,-1
1481309337173662,-1,2,3,-1,2,12,9,0
1481309337173662,-3,-2,-2,0,5,-1,-2,-2
1481309337181687,1,4,3,-1,-13,1,0,0
1481309337181687,2,-2,-12,2,13,-7,-4,-1
1481309337188663,-4,-4,2,1,-1,4,1,0
1481309337188663,-2,-5,-7,-5,-7,1,-3,-3
1481309337196602,0,-1,-3,8,7,-1,0,-1
1481309337196602,4,2,6,-4,-10,2,0,0
1481309337211595,12,12,1,-1,4,-18,-8,2
1481309337211595,-17,-20,-2,1,0,-5,7,-2
1481309337218666,2,1,1,-3,1,-2,15,2
1481309337218666,-2,-2,3,3,3,13,4,2
1481309337233600,-6,-2,-2,-4,6,-1,-13,1
1481309337233600,12,9,1,0,-7,-8,23,-1
1481309337242107,5,5,-1,3,-1,-24,-17,3
1481309337242107,-13,-6,-2,-2,4,-1,7,-1
1481309337257110,-1,-5,1,2,3,3,7,-2
1481309337257110,4,7,6,1,-7,-3,-51,-2
1481309337257110,-4,-2,0,-2,9,16,22,-1
1481309337257110,8,7,6,5,0,7,-1,2
1481309337271165,-5,-5,-1,0,1,-1,-5,-3
1481309337271165,-3,-4,-5,-3,6,-3,-3,-3
1481309337278178,-1,1,-1,1,1,-3,-8,-2
1481309337278178,2,0,-2,-5,-2,-5,-7,-2
1481309337294114,2,-1,4,-3,-9,6,13,2
1481309337294114,3,1,-2,1,0,-8,0,1
1481309337302111,-1,-1,-7,-3,-9,2,-5,-5
1481309337302111,1,-1,-6,0,-8,2,9,-1
1481309337317184,-4,-2,1,-1,-5,-5,-6,-2
1481309337317184,2,4,1,4,4,14,9,3
1481309337317184,-4,-2,6,0,-7,-2,-2,1
1481309337317184,-6,-2,-2,-3,-3,5,-11,-4
1481309337332690,1,0,-4,0,-4,3,22,-2
1481309337332690,1,-1,1,4,4,19,-1,2
1481309337338782,1,5,-2,-1,-7,-4,-1,2
1481309337338782,10,-1,-3,-6,4,7,-2,0
1481309337353784,-26,-13,-3,6,8,-4,-5,-6
1481309337353784,2,2,1,-3,11,-5,1,-3
1481309337361712,0,-1,3,-4,-13,1,-4,-3
1481309337361712,1,-2,-3,0,-5,-10,-2,1
1481309337377726,7,4,2,0,5,6,-4,1
1481309337377726,-5,-4,-3,-7,-8,-17,-2,-3
1481309337377726,0,0,0,5,8,-5,-11,-2
1481309337377726,1,1,2,3,4,-14,-1,0
1481309337390852,3,1,-3,-2,3,-6,-5,-3
1481309337390852,-4,1,-4,-3,-5,6,-4,-3
1481309337398723,2,-2,1,1,12,5,6,0
1481309337398723,-5,-1,1,-2,3,-7,-3,-3
1481309337413796,1,0,-1,0,4,1,-4,0
1481309337413796,0,-3,0,-3,2,20,0,-1
1481309337421796,-4,-5,-8,-1,10,19,-5,-2
1481309337421796,-4,-2,-2,3,12,31,1,-1
1481309337437227,-3,-2,-10,1,16,13,-6,-1
1481309337437227,-2,0,-5,-6,4,11,-2,1
1481309337437724,-5,-4,-1,-3,4,12,2,-1
1481309337437724,-7,-3,-13,3,17,3,-5,-2
1481309337450980,0,-1,0,-1,7,24,0,3
1481309337450980,-8,-3,-6,-3,-5,-3,-4,-2
1481309337466980,-4,-4,-5,5,17,13,0,-1
1481309337466980,-3,-2,-5,-1,9,6,-7,-5
1481309337473980,3,-2,-5,-4,-2,6,2,-2
1481309337473980,-6,-5,-7,-1,5,17,2,0
1481309337482983,-6,-3,-13,-4,7,-3,-11,-4
1481309337482983,-3,-1,0,5,-2,-5,0,-1
1481309337496982,-5,-5,-6,-1,3,-9,-4,-4
1481309337496982,-5,-2,-3,6,-8,-5,0,0
1481309337497982,-7,-7,-8,0,-1,2,0,-2
1481309337497982,0,-3,-4,-6,-4,-9,2,-1
1481309337511001,-6,-4,1,2,-18,-16,0,1
1481309337511001,-3,-2,-8,-5,0,-15,-2,-1
1481309337519028,-1,0,5,10,0,-17,4,-1
1481309337519028,-2,-5,-7,-5,-10,-7,0,-1
1481309337533572,-1,-2,2,1,-7,-12,0,0
1481309337533572,4,-3,6,6,1,-12,3,0
1481309337541947,-2,-2,-5,-6,-6,-15,-1,1
1481309337541947,-3,-2,-3,1,1,-5,-3,-2
1481309337556945,3,2,0,0,-3,-11,-1,-1
1481309337556945,-3,-1,-1,-1,-7,-8,-4,-3
1481309337557947,-3,-3,-7,-10,7,1,0,-2
1481309337557947,-4,-1,2,5,-6,-2,2,1
1481309337579946,-2,-2,-3,0,-1,-1,-2,-1
1481309337579946,1,1,0,-3,2,-8,-2,-1
1481309337579946,0,-2,-3,-1,-10,3,-3,-4
1481309337579946,-1,-2,0,-12,-6,8,0,-2
1481309337593948,-2,-1,0,5,3,24,4,-2
1481309337593948,-1,-1,-1,0,0,5,1,-2
1481309337602018,1,1,2,-1,4,-1,-2,1
1481309337602018,0,1,2,3,-1,2,3,1
1481309337617019,0,1,4,3,0,-3,2,1
1481309337617019,1,1,-1,2,-9,-9,-2,1
1481309337617949,1,0,2,-1,-1,13,4,1
1481309337617949,0,-1,1,2,-4,-9,-5,-1
1481309337631536,-3,-2,-4,-3,0,-1,-2,1
1481309337631536,-1,-1,0,4,5,1,2,-2
1481309337638770,0,0,-4,3,-4,-6,-2,0
1481309337638770,1,1,1,-1,-1,18,2,-2
1481309337654775,-1,0,2,-2,-10,-4,-4,-2
1481309337654775,0,-4,-3,0,2,4,-2,-2
1481309337661773,-4,-1,5,-8,-7,-3,0,-1
1481309337661773,-1,-1,-2,10,11,-11,-2,-1
1481309337676773,-3,-2,-10,-13,-7,-2,3,2
1481309337676773,-2,0,-4,-7,-3,-1,0,1
1481309337677774,-1,-1,3,5,-4,-5,-2,-2
1481309337677774,-3,-2,-11,-3,8,-17,1,1
1481309337690775,-2,-2,-4,-1,2,-2,-4,-3
1481309337690775,0,-1,-2,0,1,-3,-2,-2
1481309337698773,0,-2,-3,-6,-2,1,6,1
1481309337698773,-2,0,3,12,10,-1,-1,0
1481309337713774,1,-1,-2,-3,-4,-5,-1,3
1481309337713774,5,4,2,-3,-4,4,3,-1
1481309337722354,-9,-8,-3,-3,1,-1,-1,0
1481309337722354,-3,3,4,-1,-10,4,-4,-5
1481309337736855,1,-1,0,-2,0,-1,-2,0
1481309337736855,-1,-1,-3,3,3,-10,2,2
1481309337737354,2,1,-1,8,7,2,-2,2
1481309337737354,-1,-3,-7,-16,-15,3,6,-1
1481309337750807,-3,-3,-3,-3,3,-10,-8,-4
1481309337750807,0,1,0,0,1,2,-1,-2
1481309337758740,0,1,2,4,-3,-6,1,0
1481309337758740,1,-2,0,-3,-4,0,6,2
1481309337773810,-4,-1,-5,4,2,-13,-5,-3
1481309337773810,-1,1,6,3,1,8,-2,1
1481309337781739,1,2,6,-8,-1,-4,-5,-6
1481309337781739,0,-1,-3,2,-1,6,2,1
1481309337796745,-2,-2,-1,2,-3,5,0,0
1481309337796745,-1,-3,-3,-5,-3,-4,-1,-2
1481309337797739,1,1,6,9,5,19,3,0
1481309337797739,0,0,-5,-9,-1,-10,-10,-3
1481309337810744,3,1,0,3,7,0,-2,0
1481309337810744,-5,-1,-1,0,-4,3,2,1
1481309337818811,1,2,-2,-1,4,-14,-9,-2
1481309337818811,-7,-14,-8,-5,6,4,-3,-1
1481309337833821,1,-2,-3,3,-7,3,-5,-1
1481309337833821,4,1,5,5,4,7,0,0
1481309337842410,0,2,-2,-9,-2,-3,0,2
1481309337842410,-1,2,0,9,1,-9,3,3
1481309337857408,-1,-1,-1,-6,-9,3,2,-1
1481309337857408,-4,-2,-4,0,6,-7,-5,-3
1481309337857408,-3,-5,-8,0,-9,1,0,-2
1481309337857408,1,-1,3,1,2,-18,-9,-3
1481309337871477,-3,-1,2,-2,-2,8,4,2
1481309337871477,-2,-2,-7,-3,-5,-7,-3,-2
1481309337887410,0,1,2,2,5,-4,0,0
1481309337887410,2,3,-1,4,-1,-2,2,2
1481309337893410,1,0,6,0,1,-4,1,-1
1481309337893410,-4,-4,-4,-7,-3,-3,0,0
1481309337902441,9,4,-1,1,-4,9,10,3
1481309337902441,-5,0,4,-4,-5,11,-6,-3
1481309337916479,-7,-2,7,4,3,-2,1,-4
1481309337916479,-13,-3,-12,5,4,-22,0,-2
1481309337917408,6,-7,0,-2,-9,1,5,-1
1481309337917408,3,5,2,-6,-8,15,5,3
1481309337931417,7,5,-1,-3,0,-7,0,-1
1481309337931417,8,1,-2,1,0,5,-2,-1
1481309337938506,-12,-5,-12,-10,-7,-22,-6,-2
1481309337938506,4,-4,0,4,2,0,-3,-3
1481309337953507,4,1,1,4,1,-5,-1,2
1481309337953507,-3,-4,-4,-4,1,5,0,-2
1481309337961437,-1,0,-1,2,-1,-2,-4,-2
1481309337961437,-2,-1,6,0,-5,8,-2,-3
1481309337977437,-3,-2,-5,-7,1,1,-1,-1
1481309337977437,0,-1,2,6,5,1,1,2
1481309337977437,-3,-1,-5,-10,-8,0,-1,2
1481309337977437,13,11,0,-3,-2,-5,0,-1
1481309337991440,-1,-6,-1,4,1,7,2,-2
1481309337991440,-10,2,5,2,2,10,2,-3
1481309337998509,7,2,-1,1,-2,10,0,1
1481309337998509,1,3,-1,-2,0,-1,-1,-1
1481309338013529,4,-4,0,-1,-3,4,0,0
1481309338013529,-1,-4,-5,-5,-9,-1,-1,0
1481309338029448,2,3,7,4,4,0,-2,-2
1481309338029448,-8,-6,1,0,-2,-2,-2,1
1481309338036949,2,2,-4,0,-4,3,3,0
1481309338036949,6,0,5,2,0,5,3,1
1481309338037450,-3,0,-1,-2,-4,8,0,-2
1481309338037450,-1,-2,-2,-5,0,-2,3,1
1481309338052772,-7,-3,-14,-1,2,-4,-3,-3
1481309338052772,2,3,-1,-5,-1,-6,-4,-1
1481309338058776,2,0,0,1,3,-6,-2,1
1481309338058776,4,2,5,4,4,7,2,-2
1481309338073836,-13,-2,-1,-7,-10,-2,-3,-1
1481309338073836,1,-1,-4,1,-1,-4,-2,-2
1481309338081773,-4,-3,3,-7,0,0,-3,-2
1481309338081773,0,-2,-8,9,-4,2,3,-1
1481309338096793,3,-2,-4,-14,-5,0,-4,-1
1481309338096793,2,-3,-1,7,2,4,0,0
1481309338104857,-15,2,0,4,1,0,-2,-1
1481309338104857,2,-1,-4,-2,-10,-7,-3,0
1481309338112793,-1,0,1,-1,1,7,2,0
1481309338112793,1,0,3,-3,0,-2,-2,1
1481309338118775,-2,-5,-6,1,3,-1,-2,-5
1481309338118775,-4,-2,-1,-4,0,-1,0,-3
1481309338133800,0,1,3,6,2,-4,-1,1
1481309338133800,22,3,3,-6,-3,0,-2,4
1481309338141861,-26,-5,-5,0,3,6,-2,-4
1481309338141861,2,-1,0,8,3,-3,1,0
1481309338155861,3,0,1,-14,-8,2,-1,-1
1481309338155861,-2,-2,-2,13,10,0,0,-1
1481309338164863,14,3,-3,-6,-2,1,0,0
1481309338164863,-13,-8,0,1,2,-7,-4,0
1481309338178862,-1,-3,-2,-1,5,-1,-1,-2
1481309338178862,-1,0,0,-8,-5,6,0,-1
1481309338179862,6,3,-1,-4,-2,-3,-1,-1
1481309338179862,-6,-3,-3,3,6,5,3,1
1481309338193863,-1,-1,1,3,-3,-1,-2,-1
1481309338193863,-6,-5,-5,-6,0,1,0,-3
1481309338208945,4,0,-4,5,4,-12,-2,-1
1481309338208945,2,2,2,-8,-8,1,-3,-2
1481309338215937,-2,-4,-6,-1,-3,-1,3,1
1481309338215937,5,2,2,-5,-3,-2,0,0
1481309338224454,-24,1,0,2,-5,3,0,-1
1481309338224454,-2,2,-1,-6,3,-3,1,1
1481309338238955,-12,-15,-3,10,6,-7,-8,-6
1481309338238955,-1,-1,-1,-15,-17,-2,2,1
1481309338239956,8,0,1,1,4,2,-2,3
1481309338239956,5,4,-1,-10,-4,-5,-1,0
1481309338253958,0,3,5,10,4,5,-1,-1
1481309338253958,-4,-3,-5,-8,-6,-2,-3,-1
1481309338261958,6,-1,-3,-8,-11,-4,2,-1
1481309338261958,-4,-3,1,24,22,2,-1,0
1481309338275960,6,-1,-2,-5,6,0,3,-1
1481309338275960,-6,-2,0,7,1,-7,0,1
1481309338283963,5,1,1,-3,-6,5,-3,-2
1481309338283963,1,0,-5,-8,-10,2,-2,-3
1481309338299030,0,0,-1,1,-3,-5,2,1
1481309338299030,3,-1,4,7,9,8,1,-1
1481309338299962,-12,-3,5,-1,-4,2,3,1
1481309338299962,0,-1,1,-9,-9,0,0,0
1481309338314033,3,7,1,4,2,-5,-3,1
1481309338314033,4,-3,-3,-1,-3,-10,-3,-2
1481309338321032,-9,-10,-1,-1,4,-1,-2,-3
1481309338321032,3,1,2,23,13,3,2,0
1481309338336470,-4,3,-5,-28,-24,-10,-1,0
1481309338336470,-1,-3,-1,10,-2,6,-2,-1
1481309338344527,7,-2,-4,-3,2,-11,-13,-1
1481309338344527,-7,1,6,-10,-23,19,23,3
1481309338359530,0,1,-2,9,18,-4,-16,-2
1481309338359530,-1,4,3,2,-3,15,3,1
1481309338360531,3,-3,1,8,-9,-9,-4,-2
1481309338360531,-2,-1,-3,-15,-16,-1,-6,-3
1481309338373601,0,-3,-4,3,9,-3,5,-2
1481309338373601,-11,-5,1,-16,-6,10,-4,-2
1481309338381568,3,0,-4,17,5,-8,0,0
1481309338381568,7,-1,-2,-12,-1,-11,-2,0
1481309338396607,-15,-2,2,2,-2,9,3,-3
1481309338396607,-3,-4,-10,-4,3,-12,-2,-1
1481309338404603,4,3,1,-6,7,2,3,1
1481309338404603,-3,1,-3,10,-11,-10,-6,-1
1481309338419607,-1,-3,2,-10,-5,3,-3,1
1481309338419607,-3,-2,-3,-7,-28,-8,-3,-2
1481309338420534,4,-2,-1,7,18,10,7,3
1481309338420534,-2,-1,0,-7,4,-5,-9,-3
1481309338434113,3,0,-2,17,-4,-3,6,1
1481309338434113,-1,1,-8,-15,-3,5,3,0
1481309338441123,5,3,5,1,1,1,-1,-3
1481309338441123,-2,-3,-3,0,3,1,-3,-3
1481309338456215,3,0,-1,-20,-5,5,7,2
1481309338456215,1,0,3,8,7,-12,-3,-2
1481309338464131,-9,-3,-4,-1,-2,4,-4,0
1481309338464131,14,2,0,-8,1,-1,-2,1
1481309338479121,-15,-5,-3,5,4,-11,-7,-4
1481309338479121,-3,1,1,2,3,-8,-4,-1
1481309338480120,5,-6,-1,3,4,-2,8,1
1481309338480120,-5,-1,-2,-2,0,-3,-12,0
1481309338493122,1,0,0,-9,-6,17,20,2
1481309338493122,3,0,6,25,12,-1,-1,-1
1481309338501192,-3,-2,-3,-5,-4,-7,-5,-3
1481309338501192,-2,-1,-2,3,-5,11,-2,-1
1481309338526744,7,1,-2,1,-11,-14,-14,-2
1481309338526744,-7,1,0,-25,-12,12,5,0
1481309338527241,0,1,-1,20,-2,0,-2,-1
1481309338527241,-7,-6,-6,-2,0,-2,1,-2
1481309338539869,1,2,9,-1,4,4,-3,1
1481309338539869,-1,-3,-7,-2,3,-4,0,-3
1481309338539869,0,6,6,-8,-8,2,-3,-2
1481309338539869,-5,-6,-4,-5,-1,2,0,-1
1481309338553939,4,1,-4,6,4,-12,-1,-1
1481309338553939,-10,-5,1,-2,5,0,-4,-2
1481309338560940,2,1,0,-4,3,9,0,-2
1481309338560940,3,-3,-1,11,4,-8,2,1
1481309338575871,1,2,4,-11,-10,17,3,-3
1481309338575871,16,2,0,11,5,-12,-3,1
1481309338584875,-13,-3,-2,-8,-2,1,0,0
1481309338584875,-9,-4,1,-8,2,7,3,-2
1481309338607876,2,-1,-1,24,-4,-8,-6,-2
1481309338607876,0,-1,-1,1,7,3,3,1
1481309338607876,3,-1,-4,-6,-3,-5,1,1
1481309338607876,0,2,-1,-19,4,-7,-5,-1
1481309338613942,-1,0,2,21,6,10,1,0
1481309338613942,-5,0,2,-4,-2,2,-1,0
1481309338620945,1,-2,-7,2,-1,-8,0,-2
1481309338620945,-2,-1,4,16,-5,-2,1,-2
1481309338636386,-2,-5,-3,-36,3,16,5,1
1481309338636386,-2,2,4,6,-14,17,0,-1
1481309338644111,6,0,-1,-5,-3,1,-1,3
1481309338644111,-3,0,0,5,1,8,1,-2
1481309338659043,-2,-4,-7,-8,-6,-11,-3,-2
1481309338659043,1,-1,1,2,7,-6,-1,0
1481309338660040,-5,0,5,-9,-6,16,3,2
1481309338660040,0,1,-12,9,0,-1,-1,2
1481309338674043,1,0,1,3,2,-15,-4,1
1481309338674043,-6,-1,-3,-10,5,-4,-4,-2
1481309338681045,2,2,-4,-4,-3,-6,-3,0
1481309338681045,-2,-3,7,0,3,-1,1,-4
1481309338696042,1,2,-21,-14,-2,-2,-3,-1
1481309338696042,0,-4,-3,10,-10,-8,-1,-1
1481309338704045,0,-1,0,3,-2,-1,-1,-2
1481309338704045,0,1,3,-2,-1,10,-3,1
1481309338728125,-4,-3,-1,-18,-9,-6,-2,-1
1481309338728125,-2,1,4,38,20,2,1,0
1481309338728623,-3,-2,-1,-8,-8,8,5,-2
1481309338728623,0,2,-1,0,5,-1,-5,-2
1481309338734125,0,2,6,-1,-4,-13,-2,3
1481309338734125,-1,-4,-3,6,5,-2,-1,-1
1481309338742146,-1,-4,-1,0,-20,-6,-1,-3
1481309338742146,7,2,3,0,17,-12,-1,0
1481309338765217,-13,-5,-5,-8,-1,5,7,-2
1481309338765217,-1,-1,-4,-13,-12,-12,-1,0
1481309338766147,-3,-2,-3,7,9,-4,-2,-1
1481309338766147,0,-3,-1,-7,-11,4,1,0
1481309338779219,3,-2,1,10,0,1,-3,1
1481309338779219,-3,0,0,-15,-5,14,1,0
1481309338780147,-1,1,3,19,6,1,0,0
1481309338780147,0,0,-2,-13,-12,-10,1,-1
1481309338794157,2,-1,2,17,16,5,1,0
1481309338794157,-5,-2,1,-9,1,-3,-3,-3
1481309338802150,1,0,-5,-9,1,-2,1,0
1481309338802150,-6,-6,-9,-5,3,8,7,-3
1481309338816150,1,0,-3,2,-1,-22,-2,1
1481309338816150,1,-3,3,-1,0,13,2,-1
1481309338824763,-2,-3,-3,-14,-1,-3,-3,-2
1481309338824763,-4,-2,-2,8,-3,-6,-3,-2
1481309338839320,0,-3,-1,0,2,8,2,-3
1481309338839320,-1,-2,-8,-7,-6,-14,-3,1
1481309338840250,-1,-2,-2,1,4,-15,-5,1
1481309338840250,0,0,-2,-1,1,2,1,0
1481309338854252,2,-1,-2,1,1,-6,-4,-1
1481309338854252,-2,1,0,-3,-3,15,2,1
1481309338861266,-7,-4,0,4,-10,0,0,0
1481309338861266,0,1,1,7,11,-3,-1,2
1481309338876250,-2,1,1,-10,-14,16,1,0
1481309338876250,3,-1,-3,-7,-1,23,4,-1
1481309338884323,1,2,1,30,6,-7,-2,-2
1481309338884323,-1,0,2,-9,-5,-6,-3,3
1481309338899323,0,0,1,5,0,-8,-5,-3
1481309338899323,-4,0,-1,0,4,-6,-1,-1
1481309338900256,2,1,0,-8,-2,-8,-4,1
1481309338900256,-2,-1,-1,-12,-8,5,-2,-1
1481309338915252,0,-2,0,19,11,-1,-1,0
1481309338915252,-2,-1,-1,-7,-9,-1,2,-1
1481309338921262,-4,-1,-4,-8,7,-19,-2,-1
1481309338921262,1,-1,-4,-6,2,-11,-18,-2
1481309338936335,-1,2,4,-12,-8,13,28,4
1481309338936335,-3,-4,-5,21,13,-26,-5,-1
1481309338944540,0,-2,-2,-10,-3,-8,3,2
1481309338944540,-1,-2,-2,-9,-8,-6,-2,-1
1481309338959469,-7,-2,0,6,4,10,3,2
1481309338959469,4,0,-4,-2,4,-18,-8,0
1481309338960471,4,5,5,-11,-5,9,-3,-1
1481309338960471,-4,-7,-4,15,7,-7,6,-1
1481309338973544,6,2,0,-14,-10,20,-6,-1
1481309338973544,4,3,-2,17,2,-3,1,0
1481309338981546,-8,-6,-1,-2,3,14,-3,-1
1481309338981546,-6,-2,2,-12,-9,5,1,-3
1481309338996546,2,-1,-1,7,6,-5,-1,-1
1481309338996546,-2,-1,1,-12,-3,8,-1,-1
1481309339004476,-2,-5,0,8,5,13,3,-1
1481309339004476,-3,-1,-3,-5,-21,14,8,0
1481309339018544,-4,-4,-6,3,10,-29,-8,-4
1481309339018544,4,1,-1,-4,-1,-32,-3,1
1481309339027053,-17,-3,-4,2,7,-5,-2,-3
1481309339027053,3,-1,1,1,7,-1,3,-1
1481309339034055,4,5,0,9,1,-16,-8,0
1481309339034055,-4,-2,1,-10,-4,4,3,-1
1481309339041623,4,-1,-1,-4,-7,-2,0,-2
1481309339041623,0,1,1,13,11,19,-4,0
1481309339056604,-8,-3,-1,-8,-13,8,-5,0
1481309339056604,1,-1,-1,0,1,11,-7,-1
1481309339064646,4,-1,-3,-4,-3,9,5,-2
1481309339064646,-6,-3,-4,3,9,-22,2,-2
1481309339078649,-2,1,-6,2,0,-7,-4,-3
1481309339078649,-7,-5,2,6,-11,17,-5,-1
1481309339087579,22,6,4,-6,-6,18,0,2
1481309339087579,-26,-8,-4,3,-12,-6,-3,-3
1481309339093642,9,0,-1,0,9,-3,-3,1
1481309339093642,-1,0,6,-1,-6,13,5,0
1481309339101606,3,5,1,6,2,-15,-5,1
1481309339101606,11,4,-1,-1,0,-27,-1,-1
1481309339116578,-7,-2,-3,-2,5,3,0,-4
1481309339116578,-1,-2,0,18,1,-13,-1,0
1481309339124588,-6,-7,-3,-12,-3,-1,5,-2
1481309339124588,3,4,-3,-7,-9,7,-3,0
1481309339138587,1,-2,0,1,4,-8,-1,-1
1481309339138587,-8,-3,-4,-6,5,-30,1,-2
1481309339146677,7,3,-3,-12,-3,-5,-6,-1
1481309339146677,-21,-11,0,13,11,8,1,-3
1481309339161678,4,-2,-5,-12,-4,1,4,3
1481309339161678,0,2,0,4,-6,21,-1,-2
1481309339162608,-4,0,-2,1,6,-9,-2,-3
1481309339162608,7,4,0,-6,-2,2,-3,0
1481309339175608,-2,-2,-5,-1,1,-20,-4,-2
1481309339175608,-9,-6,-2,-5,3,3,-1,-2
1481309339184681,-3,-2,-5,5,-5,0,1,0
1481309339184681,8,2,0,1,0,11,5,3
1481309339198681,-6,-4,0,-1,1,2,-1,1
1481309339198681,4,4,1,-10,-1,-14,1,2
1481309339206712,-11,-3,-1,-2,0,2,-4,-4
1481309339206712,-8,-4,-4,-1,5,-30,-1,-2
1481309339221682,2,3,3,-1,-2,-1,-2,-1
1481309339221682,5,-1,1,1,-4,16,7,3
1481309339222610,0,0,3,-13,-8,8,-3,0
1481309339222610,6,3,-2,8,4,15,-3,-3
1481309339236123,-5,-3,0,4,2,12,1,-2
1481309339236123,0,0,-3,-8,-1,-2,-2,-2
1481309339244777,-1,-3,-4,0,-2,-19,-1,0
1481309339244777,3,-1,-1,-6,-4,6,2,0
1481309339258789,0,0,2,10,-4,16,5,-2
1481309339258789,2,3,2,1,9,-9,-4,-1
1481309339266848,0,2,9,4,3,10,3,2
1481309339266848,1,2,-2,-11,-2,-17,-5,0
1481309339281845,-2,0,-3,3,2,-10,-5,-1
1481309339281845,-3,0,3,-5,-4,-1,-4,-4
1481309339282774,-2,-2,-1,7,-10,26,5,1
1481309339282774,8,0,1,-3,-1,-7,-3,-2
1481309339296777,-16,-8,-4,-7,3,2,-2,-1
1481309339296777,8,2,-5,-8,-9,4,6,1
1481309339304808,-8,0,-3,-4,7,-25,-5,0
1481309339304808,21,5,2,18,10,9,1,2
1481309339318850,-30,-7,-1,-4,-4,-2,-10,-4
1481309339318850,6,-3,0,-4,-21,-2,11,-3
1481309339327288,2,0,2,9,13,12,6,1
1481309339327288,-3,-2,-2,-1,-13,8,3,1
1481309339341873,12,6,3,3,5,2,-5,1
1481309339341873,-8,1,1,-1,-10,12,-4,-1
1481309339357875,1,-2,-6,-3,-12,15,-11,-1
1481309339357875,-4,-4,-3,-2,2,-2,12,1
1481309339358872,6,3,0,0,-10,1,-2,-2
1481309339358872,-6,-1,-2,-1,9,-3,1,-1
1481309339364875,1,-3,-5,-1,2,-34,-7,-1
1481309339364875,-3,-3,3,-2,2,8,-6,-3
1481309339378936,2,0,-2,-1,1,-15,0,-2
1481309339378936,-3,-3,-4,2,11,2,-10,0
1481309339386944,-2,0,1,2,1,0,4,0
1481309339386944,-2,0,0,6,-3,-4,0,-1
1481309339401946,8,1,0,-2,-3,-8,3,0
1481309339401946,-7,-1,-2,-1,2,8,0,-1
1481309339402877,0,0,0,4,4,9,2,-1
1481309339402877,1,2,11,-2,-6,8,4,3
1481309339415946,3,-1,0,-6,-9,15,-4,-2
1481309339415946,1,-1,2,6,-2,-4,1,2
1481309339424388,-2,-3,1,-2,2,-13,-4,-4
1481309339424388,0,4,3,-16,-6,15,0,2
1481309339438888,1,-5,-6,20,9,-9,1,-1
1481309339438888,-3,0,-1,-6,0,2,1,-1
1481309339447026,-1,-1,-4,-3,-1,-8,-6,-4
1481309339447026,1,2,-3,-23,-10,-7,0,1
1481309339462028,0,-1,2,30,1,5,2,3
1481309339462028,1,-3,-4,0,4,8,2,0
1481309339462959,-1,0,0,-14,-1,24,-8,-2
1481309339462959,-3,0,-3,21,11,-20,9,-3
1481309339475956,-1,0,-6,-19,-10,6,-4,-2
1481309339475956,-2,-3,-6,-4,6,-12,-7,-1
1481309339484028,6,-1,-1,8,-9,-6,4,0
1481309339484028,-10,-5,-2,-11,-10,0,-10,-1
1481309339498962,-1,0,4,4,4,-1,7,0
1481309339498962,-1,-2,-1,3,-7,8,4,-3
1481309339506960,3,2,1,-7,-7,5,2,4
1481309339506960,-2,-2,-6,-5,-1,5,-6,-1
1481309339522035,-3,1,1,-5,-4,4,2,-1
1481309339522035,-1,-2,-3,-5,0,-7,2,-3
1481309339522958,-6,-5,-5,0,2,-6,0,-1
1481309339522958,0,-4,0,13,1,18,10,-2
1481309339536471,8,3,1,-12,-7,-3,-23,-2
1481309339536471,3,-3,1,1,17,-6,22,3
1481309339544119,-24,-7,-5,-6,-1,-11,19,-2
1481309339544119,3,2,-4,-1,4,0,2,0
1481309339559044,-4,-1,-3,-7,-3,-9,-10,-7
1481309339559044,10,6,2,-1,2,16,-4,1
1481309339567128,0,-3,-5,1,-11,-1,0,0
1481309339567128,0,2,15,18,20,-13,2,3
1481309339582052,4,1,3,-2,4,-9,-4,1
1481309339582052,-6,-3,-6,2,-2,-11,-8,-4
1481309339582052,1,-1,1,-1,2,3,4,0
1481309339582052,-4,-2,-5,0,-8,-2,-8,-3
1481309339596115,-1,-5,-5,-5,9,-7,0,2
1481309339596115,-5,-1,3,2,-10,8,3,0
1481309339604116,1,1,4,5,0,-2,-7,-1
1481309339604116,-1,-1,-8,-10,-3,-3,-12,-4
1481309339628059,-1,1,2,3,2,10,10,1
1481309339628059,-5,-2,-7,-5,-5,-4,-3,-2
1481309339628559,7,0,2,16,-2,-1,-4,-1
1481309339628559,-2,-1,1,-5,-1,14,-2,2
1481309339642106,-5,-2,0,-4,-16,19,-1,-2
1481309339642106,1,2,2,9,4,4,19,0
1481309339642106,2,0,-7,-15,-9,-10,-12,-2
1481309339642106,0,0,2,12,7,-4,1,-2
1481309339656178,-3,-2,0,2,6,-4,2,-1
1481309339656178,1,-1,-4,1,-9,-1,-16,0
1481309339664107,3,2,0,-5,14,24,6,2
1481309339664107,-6,-7,-9,-8,-10,-7,-3,-3
1481309339679115,-1,-2,-5,-14,-8,-1,-1,0
1481309339679115,-1,0,4,5,4,-7,-1,0
1481309339687179,2,3,3,7,7,-3,0,-2
1481309339687179,-2,-3,0,4,-4,-5,-2,2
1481309339702184,-2,-1,-11,-11,-6,1,-3,-2
1481309339702184,-2,0,2,-1,-1,-3,-6,-1
1481309339702184,0,-4,-1,18,-1,7,0,0
1481309339702184,-1,-2,-6,-11,-1,-11,-8,-1
1481309339716182,-4,-1,2,11,-2,-8,7,1
1481309339716182,-1,0,-3,-7,4,11,-1,-2
1481309339724741,0,0,4,-9,-5,-5,-3,-1
1481309339724741,4,-3,-18,-11,-4,15,6,-1
1481309339739243,-3,0,5,11,3,-10,7,0
1481309339739243,-3,4,-2,-13,-12,-14,-14,-2
1481309339746443,-4,-5,8,2,1,-2,9,-1
1481309339746443,1,1,7,-9,1,3,7,1
1481309339761363,0,-3,-4,6,16,6,-1,-2
1481309339761363,-2,-2,0,-5,-15,-8,0,2
1481309339762367,0,2,3,0,-11,-3,-5,0
1481309339762367,-5,-1,3,-1,1,-13,-2,-1
1481309339776444,2,2,-2,0,-6,3,8,1
1481309339776444,-2,-4,3,9,4,-11,-5,-1
1481309339784368,-1,2,1,-1,2,-3,4,1
1481309339784368,-1,-5,-21,-2,-17,-13,-5,-3
1481309339798365,4,7,15,4,-8,0,4,2
1481309339798365,0,1,8,8,-5,-11,2,0
1481309339807366,-4,-5,-17,-6,-8,-5,0,-1
1481309339807366,-1,-4,-9,3,1,-3,-1,-2
1481309339822384,1,-2,-2,-5,-16,-7,2,0
1481309339822384,0,1,11,10,-3,-10,1,-2
1481309339822384,4,4,2,1,-6,-8,1,1
1481309339822384,-6,-2,11,1,-3,-9,-4,-5
1481309339836375,-2,-10,-10,1,5,-10,1,1
1481309339836375,1,3,-3,-11,-7,-4,1,-2
1481309339843879,3,8,10,2,-2,-8,-5,1
1481309339843879,1,4,-1,-1,-10,-5,-1,0
1481309339858880,2,5,10,10,-4,-9,0,1
1481309339858880,-1,-4,9,-19,-4,-3,0,-2
1481309339866952,2,-4,-30,-17,-11,-9,-4,-3
1481309339866952,6,6,5,24,8,-5,5,1
1481309339881882,2,5,10,-5,-18,-2,2,1
1481309339881882,-2,1,12,9,17,-1,-3,2
1481309339882881,1,1,11,-2,-6,-1,0,0
1481309339882881,-1,-3,4,-8,1,-2,2,1
1481309339895882,-3,-3,-5,-2,-5,2,-6,-4
1481309339895882,3,-1,-15,-9,-9,0,1,-2
1481309339903956,-3,0,8,11,6,-9,3,0
1481309339903956,-2,1,12,-1,0,1,1,1
1481309339918955,0,3,12,3,4,6,1,1
1481309339918955,3,-2,-1,-9,-10,-6,0,2
1481309339926899,-6,-8,-13,-1,6,2,-5,-7
1481309339926899,1,4,8,-3,-10,0,-3,-1
1481309339941667,-1,0,5,-7,3,1,3,0
1481309339941667,-2,2,7,8,4,1,-1,-1
1481309339942666,0,-2,-2,5,3,5,0,1
1481309339942666,0,-3,2,-8,-2,0,2,1
1481309339956665,-1,0,11,-2,-17,-11,-3,-1
1481309339956665,-2,-3,-13,-3,2,-1,0,-4
1481309339964668,3,2,4,2,-1,-3,-1,-3
1481309339964668,-2,1,3,-6,3,-2,-1,-2
1481309339978669,-3,-8,-13,0,8,4,-2,-2
1481309339978669,-1,-2,-7,0,-1,5,1,1
1481309339986669,-3,-4,2,-3,-4,-4,-1,-1
1481309339986669,5,5,-2,-9,0,-2,-1,0
1481309340000670,-3,-7,-6,-1,0,5,-2,-1
1481309340000670,-1,-2,-3,12,4,-1,-1,-1
1481309340009672,-1,3,7,1,14,7,3,1
1481309340009672,1,-1,-10,1,-13,-3,0,0
1481309340015670,-1,-6,-8,-4,1,-5,-4,-3
1481309340015670,0,-2,-25,-2,0,-1,0,1
1481309340023673,-3,-3,18,3,-6,-1,-3,-2
1481309340023673,-8,-13,-52,-18,0,0,-5,-6
1481309340038682,4,3,-8,-7,5,-3,2,-1
1481309340038682,0,3,3,-3,-9,-1,0,0
1481309340046897,-2,-3,-2,9,-3,2,1,2
1481309340046897,0,1,23,3,4,6,-1,-1
1481309340060895,-5,-5,-10,-3,9,19,1,-2
1481309340060895,-1,-3,-7,-4,-8,-16,-3,0
1481309340069897,1,3,0,0,-7,12,-2,-1
1481309340069897,0,0,11,18,18,30,2,1
1481309340083971,-1,2,2,-15,-6,19,1,-2
1481309340083971,1,-2,8,-2,-3,8,1,2
1481309340084897,-4,-5,-10,-8,2,-26,-1,-2
1481309340084897,-1,2,4,9,-3,-41,-1,2
1481309340098979,3,6,6,9,6,-39,-3,2
1481309340098979,-3,-2,-2,10,7,-34,0,-2
1481309340106902,-1,-9,-10,-19,-3,19,2,0
1481309340106902,1,6,8,-3,3,10,0,-2
1481309340120900,1,3,10,-4,-4,6,1,-1
1481309340120900,-1,3,14,9,6,-1,-1,-4
1481309340129410,0,0,-4,5,3,1,2,3
1481309340129410,-2,-4,2,-5,-9,7,0,-2
1481309340144417,-4,-2,8,3,4,-57,0,-1
1481309340144417,-2,-3,-11,-12,-6,-31,-4,-3
1481309340145417,0,1,0,4,-5,27,-1,0
1481309340145417,-1,0,11,6,-5,17,0,0
1481309340158416,-4,-4,-15,-7,-3,-4,-3,-2
1481309340158416,-1,-3,-2,6,3,23,1,-3
1481309340167419,0,-2,-5,-10,-4,-5,5,0
1481309340167419,-1,1,5,7,1,25,-7,0
1481309340181490,1,-3,-4,-1,-2,4,1,2
1481309340181490,-5,-6,-1,-3,-1,-3,-1,-1
1481309340190419,2,4,6,11,6,13,-2,1
1481309340190419,0,0,1,-11,-4,7,1,1
1481309340203490,2,0,-15,3,-16,6,-1,1
1481309340203490,0,-1,2,-10,2,3,-1,-1
1481309340219509,-2,-1,-6,0,-1,-22,-3,-4
1481309340219509,-1,-3,-1,-9,-1,-29,0,-2
1481309340220420,2,3,2,17,21,10,2,0
1481309340220420,0,0,1,-4,-6,7,-1,0
1481309340227928,2,1,-12,-9,-12,-6,-2,-2
1481309340227928,0,0,0,7,-3,0,5,0
1481309340241437,-1,-5,-7,-12,4,7,3,0
1481309340241437,1,1,4,7,2,15,-4,-1
1481309340250436,0,0,2,4,0,-6,1,-3
1481309340250436,0,-2,-3,-2,2,-4,-2,-1
1481309340263452,0,1,0,2,-17,8,-2,-2
1481309340263452,3,-1,-4,-1,5,-2,0,0
1481309340272497,0,1,5,-6,-3,4,1,-1
1481309340272497,0,-4,-12,-7,-3,-4,2,-3
1481309340278437,-3,-1,3,10,3,-5,-1,0
1481309340278437,-1,-1,0,-14,-17,-3,-1,0
1481309340287438,-1,-1,2,6,10,2,1,0
1481309340287438,-1,1,-5,4,8,-10,-4,1
1481309340301510,2,-2,-18,-4,-1,2,0,-4
1481309340301510,-2,2,-1,0,-2,8,0,-2
1481309340310438,-1,-1,0,-1,-2,-3,-3,1
1481309340310438,-1,-3,-1,8,-2,-19,-3,3
1481309340323443,1,2,7,1,-3,2,0,-1
1481309340323443,-3,-2,-5,-6,5,2,-3,0
1481309340332949,0,-1,3,-3,4,-8,-1,1
1481309340332949,1,0,-3,4,5,-4,-4,-4
1481309340347565,0,-1,4,-7,-10,18,3,0
1481309340347565,1,-1,2,9,4,0,3,2
1481309340349458,-1,3,-1,-7,-5,-5,0,-1
1481309340349458,-1,1,2,-6,-7,2,2,0
1481309340361456,-2,-4,0,5,3,-9,-6,-1
1481309340361456,0,0,0,-3,-5,5,0,-4
1481309340370458,0,-2,-2,-6,-4,-1,4,2
1481309340370458,-2,-3,-1,17,5,-8,-1,-2
1481309340383530,-1,1,3,-8,1,-1,-2,-2
1481309340383530,0,-1,1,-4,-7,-3,-1,-1
1481309340392461,0,-2,-3,12,5,-6,-3,-3
1481309340392461,3,0,0,-3,-5,0,0,0
1481309340398534,-3,-2,0,-15,0,1,-1,0
1481309340398534,0,3,-1,8,-1,5,-1,-1
1481309340407461,-4,-1,-1,0,-1,3,1,-1
1481309340407461,1,-1,-1,-3,-5,-5,-4,-2
1481309340421535,0,-1,-1,6,2,-6,-6,0
1481309340421535,-2,-2,-6,3,0,-12,-2,1
1481309340430471,-1,-3,-4,-10,-4,-3,-3,-2
1481309340430471,-2,1,-1,4,-2,-1,-1,-1
1481309340443480,-1,-3,0,-1,1,3,4,0
1481309340443480,-2,-5,-5,-4,-6,7,1,1
1481309340452484,2,3,4,3,6,-5,2,2
1481309340452484,-2,-2,1,-18,-5,4,-1,-3
1481309340458479,1,-3,-2,20,9,-5,-1,0
1481309340458479,0,0,2,20,10,-18,-7,-2
1481309340467479,-1,-3,-2,-4,-5,-7,-4,-2
1481309340467479,-1,1,2,-8,2,2,0,-1
1481309340481482,-3,-1,-6,-9,-1,-23,-4,0
1481309340481482,1,0,2,-2,0,2,-3,0
1481309340490484,-2,-1,-2,5,2,-2,-1,-2
1481309340490484,0,1,3,4,-1,-7,-2,-1
1481309340503553,0,0,4,1,2,-1,0,-1
1481309340503553,0,0,-2,-8,1,-3,-3,1
1481309340512483,-2,-1,-1,-6,3,5,2,0
1481309340512483,-1,-2,-1,2,2,7,1,-1
1481309340518563,0,-1,1,-4,-2,9,4,0
1481309340518563,-2,0,0,-8,-3,9,-2,-2
1481309340527993,-2,0,-2,5,-4,-4,2,-1
1481309340527993,-2,-3,-5,-2,-1,-6,-2,-1
1481309340549569,-1,-1,-1,-2,-2,0,-7,-1
1481309340549569,0,-1,4,10,2,15,8,-3
1481309340551499,-1,1,0,-6,-12,12,-8,2
1481309340551499,-2,-2,-5,-18,1,6,3,2
1481309340563499,0,-1,0,21,1,2,1,-1
1481309340563499,0,0,-5,-10,-4,-5,-4,-1
1481309340572498,0,2,-1,-15,5,-5,-2,-1
1481309340572498,-1,-2,-4,20,3,-3,-5,0
1481309340578501,-4,0,-2,-22,-17,2,-22,-4
1481309340578501,-1,-4,-4,0,7,-4,56,5
1481309340587501,0,0,-1,-1,3,-14,-18,-2
1481309340587501,1,3,5,10,13,8,28,0
1481309340601573,0,0,2,-1,-7,-10,-11,-2
1481309340601573,-2,-2,-4,1,-14,-11,-13,-2
1481309340610501,-1,1,2,-4,-2,10,8,0
1481309340610501,0,-1,-2,-18,-16,-3,-7,1
1481309340623507,2,3,6,13,0,35,21,3
1481309340623507,-1,-4,-6,-8,-5,-2,-9,-2
1481309340633009,0,1,-1,1,-1,-4,3,-2
1481309340633009,-3,-1,-3,5,-9,-7,-16,-1
1481309340639011,-4,-4,2,0,-4,12,12,-1
1481309340639011,-1,-3,-1,0,0,-1,-7,1
1481309340647517,1,-4,1,-8,-11,26,4,-4
1481309340647517,-4,-3,-3,6,8,-11,-16,-4
1481309340670518,2,2,-3,-38,-8,-6,8,1
1481309340670518,2,3,2,39,10,16,7,-1
1481309340671519,0,-3,-4,-13,-7,-7,-31,-3
1481309340671519,-2,1,4,-7,12,-2,23,4
1481309340683523,0,-5,-2,31,-8,32,39,-2
1481309340683523,-1,0,-2,-15,0,-8,-15,-1
1481309340700530,1,-2,-1,1,-2,-7,19,0
1481309340700530,0,0,1,8,0,12,-12,-1
1481309340701522,-1,-3,-6,-34,-5,-31,-18,-2
1481309340701522,0,1,-1,10,22,-11,20,-2
1481309340707525,-5,-3,0,15,-1,-14,-14,-1
1481309340707525,1,1,-1,-14,-4,-2,2,-1
1481309340721564,-2,-1,0,-3,8,-17,-13,1
1481309340721564,-1,-3,-1,-11,-5,0,-29,-5
1481309340730535,-1,-1,0,1,11,8,42,3
1481309340730535,-4,-3,-4,-11,-2,-22,-6,-1
1481309340743543,1,0,-4,-21,2,-17,-1,0
1481309340743543,-2,0,0,60,8,6,-3,3
1481309340752545,-2,0,-3,1,-6,6,-10,-1
1481309340752545,4,0,0,-14,-5,5,-1,-3
1481309340758546,-4,2,-3,6,5,3,3,-4
1481309340758546,-2,-1,0,-26,-11,0,-14,0
1481309340767546,0,-1,-4,0,17,-48,-5,0
1481309340767546,-1,1,4,30,-2,8,-2,-1
1481309340781545,0,1,-2,-1,-2,3,-1,-4
1481309340781545,6,0,-1,-7,0,-8,16,4
1481309340790545,-12,-1,-2,6,-4,0,-2,-2
1481309340790545,5,-3,0,-6,-3,6,8,1
1481309340803547,-1,-3,-1,3,2,0,-13,-2
1481309340803547,2,0,4,-4,-4,9,3,1
1481309340812547,7,0,0,-27,-8,13,-1,2
1481309340812547,-2,-2,-2,8,1,-1,-2,-4
1481309340818550,14,8,3,23,3,3,-3,2
1481309340818550,-28,-4,-6,5,3,-29,0,-5
1481309340828056,1,-4,-2,-16,0,-1,-9,-1
1481309340828056,1,-1,-3,7,6,-4,-13,-2
1481309340841189,4,3,1,9,5,10,4,2
1481309340841189,8,3,1,-28,-11,0,-6,-1
1481309340857191,-4,-4,-6,15,-1,-14,-4,-4
1481309340857191,-1,4,3,14,14,5,3,2
1481309340863258,-4,-4,-1,2,2,-17,-7,-1
1481309340863258,-1,-3,-4,-22,-9,4,-7,-3
1481309340872188,-4,-1,3,5,-13,15,-4,-2
1481309340872188,5,3,1,8,16,-1,2,-4
1481309340879189,-9,-5,-8,-9,-8,7,1,5
1481309340879189,1,-2,1,1,8,-7,-12,-4
1481309340887262,4,0,0,-3,0,6,11,2
1481309340887262,-2,-2,-6,-9,-4,-6,-9,-2
1481309340910260,0,0,3,1,3,9,0,-1
1481309340910260,-1,-1,-4,-3,5,-20,-9,0
1481309340911190,-2,-1,4,10,4,0,-4,1
1481309340911190,-11,-4,-1,-1,-9,-4,-1,-1
1481309340923194,-2,-2,-4,0,0,-19,1,0
1481309340923194,2,-2,-1,-8,-5,4,8,0
1481309340932700,6,1,2,7,2,-4,-6,-2
1481309340932700,-1,0,6,-11,-19,20,7,3
1481309340947778,-5,-1,1,29,2,-9,1,-1
1481309340947778,4,-1,2,-5,-7,9,3,0
1481309340948710,-4,-3,-7,-5,6,-5,-3,-4
1481309340948710,-1,-3,2,25,3,-12,5,0
1481309340961710,-1,0,4,-14,-6,9,-9,-1
1481309340961710,1,1,0,5,-4,3,2,-2
1481309340970713,1,0,-2,-6,-1,2,2,0
1481309340970713,1,0,-2,5,9,-4,-3,-3
1481309340983782,1,0,2,5,11,16,3,3
1481309340983782,-3,-3,-3,-6,2,-6,-5,-3
1481309340992710,0,-1,4,-1,-13,4,-14,-1
1481309340992710,0,-4,-3,-9,0,-1,32,2
1481309340998781,-1,-1,8,-2,-6,15,2,0
1481309340998781,-1,-1,0,-1,-3,9,3,0
1481309341007714,1,-2,-4,-1,7,-11,-3,0
1481309341007714,2,1,-1,4,-11,-1,-10,-1
1481309341021714,-1,-1,-3,-10,-4,-9,-1,-4
1481309341021714,-2,-2,-6,4,10,2,2,-2
1481309341030232,0,2,0,4,-8,-23,-2,-2
1481309341030232,-1,1,-4,-24,1,6,-9,2
1481309341043800,0,1,0,-10,-2,0,3,-1
1481309341043800,0,-2,-9,12,-2,13,-2,1
1481309341052738,0,2,4,9,6,-5,-2,0
1481309341052738,-1,-4,-4,-1,0,-3,-6,-1
1481309341067736,0,0,1,-2,1,-16,-6,-3
1481309341067736,0,0,3,-15,-5,3,2,1
1481309341068739,-2,-3,-12,10,16,-26,1,1
1481309341068739,0,-1,0,-11,-6,-8,-3,0
1481309341081738,-3,0,-6,2,-8,-1,-4,-3
1481309341081738,1,4,5,-2,12,-14,-3,-3
1481309341097740,-1,-2,1,5,-13,15,5,1
1481309341097740,-1,0,-3,-6,0,4,-5,0
1481309341103809,-2,-5,0,-2,-1,-11,4,2
1481309341103809,-1,-1,3,-13,-7,-5,-1,0
1481309341112737,-2,-2,-8,9,3,8,0,-2
1481309341112737,-1,0,4,-10,0,-2,-3,-1
1481309341127754,9,3,4,28,-3,11,2,2
1481309341127754,-12,-2,-2,-8,-5,1,-4,0
1481309341129252,3,0,6,1,1,0,-1,0
1481309341129252,-2,1,-4,-10,-5,-10,-15,-4
1481309341141765,-4,-4,-4,-4,0,18,-2,-1
1481309341141765,2,2,16,15,-4,5,-1,4
1481309341149765,-6,-1,-5,-15,6,-1,-1,-2
1481309341149765,-2,-2,-1,10,-1,0,-8,-2
1481309341163761,0,0,-4,-14,-2,-12,-6,-3
1481309341163761,0,-1,-5,-7,-7,12,7,-1
1481309341172766,-2,4,0,28,3,31,2,1
1481309341172766,1,2,6,-18,-3,0,8,1
1481309341187775,-2,-3,-3,8,9,-14,-2,-1
1481309341187775,1,-4,-7,-4,2,-6,-1,-4
1481309341188769,-1,-2,1,-10,-9,0,1,-1
1481309341188769,-1,-1,-1,7,-8,28,10,0
1481309341200837,-2,3,-3,-9,-3,2,0,1
1481309341200837,-3,0,-2,2,-2,-9,-8,-1
1481309341210765,1,-1,4,-18,-13,29,5,0
1481309341210765,0,-1,3,10,3,1,4,0
1481309341223772,0,-2,-3,-4,-2,0,-6,-2
1481309341223772,1,0,0,1,2,-11,1,1
1481309341233276,0,-1,-1,-2,9,-14,-8,0
1481309341233276,-4,-5,-8,2,2,-41,-6,-4
1481309341247789,6,1,3,-3,3,-6,0,-1
1481309341247789,-17,-7,-10,4,4,-1,-7,-3
1481309341248785,1,-2,0,-1,1,-9,-14,-3
1481309341248785,-2,-2,-3,9,-11,2,19,2
1481309341260789,0,2,4,-1,-3,-2,3,3
1481309341260789,5,0,-5,-4,-2,-3,-4,-1
1481309341269804,-2,5,2,14,-1,-2,-4,0
1481309341269804,-2,-4,2,-23,-11,-2,-9,-2
1481309341283860,-2,-3,-3,11,16,3,3,0
1481309341283860,4,2,6,3,-4,5,2,-1
1481309341292789,-1,-4,-2,-32,-8,3,11,-1
1481309341292789,1,-1,-10,16,5,0,-1,1
1481309341305877,-2,0,-7,-2,-5,-3,2,-1
1481309341305877,1,4,9,4,-4,1,-2,2
1481309341314820,-4,-3,2,0,5,-3,2,-3
1481309341314820,2,5,1,5,-3,14,2,2
1481309341321795,-4,-6,-2,-11,-4,-2,-5,-2
1481309341321795,4,-3,0,11,7,1,2,0
1481309341337890,1,-2,-9,-1,-7,2,1,-2
1481309341337890,-2,-3,3,-3,1,13,-2,0
1481309341343898,-5,-2,-5,2,-3,-8,-2,-3
1481309341343898,4,0,4,-3,-1,3,1,1
1481309341352894,0,5,10,3,1,-6,2,0
1481309341352894,-4,-3,-13,-3,2,-12,-8,-3
1481309341366967,2,0,3,0,-2,6,-1,2
1481309341366967,0,-3,-9,-6,-7,0,3,-3
1481309341374902,2,3,5,10,5,-4,1,1
1481309341374902,-3,-3,-1,-7,1,-1,3,-1
1481309341380967,-2,-2,-6,-8,-3,-3,1,-2
1481309341380967,2,0,3,16,-18,26,3,-1
1481309341389903,1,2,4,9,13,-1,1,3
1481309341389903,-3,0,8,-2,3,3,-3,-2
1481309341412904,0,-2,3,3,4,-4,-2,-1
1481309341412904,-3,-3,-15,-13,-2,-8,0,-2
1481309341413898,-2,-4,-8,-7,-3,-1,-3,-4
1481309341413898,2,4,9,21,-9,4,-3,-1
1481309341427909,-1,-1,-4,-13,1,-3,0,-1
1481309341427909,-2,-5,-14,-1,1,-6,-4,-2
1481309341429405,-2,-1,3,-19,-3,1,2,1
1481309341429405,-2,-5,-5,22,5,-4,-1,-4
1481309341440921,0,-1,-4,-22,-9,4,-2,-2
1481309341440921,-1,0,6,17,2,-1,2,0
1481309341449918,-5,-9,-11,-4,-1,-1,-1,0
1481309341449918,1,3,-1,-9,-1,0,-3,-1
1481309341463934,-5,-2,1,5,-1,3,-2,-3
1481309341463934,-2,2,6,-1,2,-10,-4,-3
1481309341472917,-1,-1,-1,-3,-3,15,-1,0
1481309341472917,1,0,0,-6,-3,4,-1,0
1481309341487917,-3,0,-1,5,1,1,2,1
1481309341487917,0,-2,0,-26,0,-8,-4,-2
1481309341489918,-3,-3,-2,11,-6,-3,0,-1
1481309341489918,1,2,-14,9,1,-5,0,1
1481309341500921,-1,-1,-1,9,-4,9,0,0
1481309341500921,-2,0,-2,-6,3,6,-1,-2
1481309341509919,2,-2,-8,-3,1,9,0,0
1481309341509919,0,-1,5,-1,7,15,-3,-1
1481309341523920,-2,-1,1,-5,0,4,-3,0
1481309341523920,0,0,-5,4,11,10,-1,-1
1481309341532927,-2,-1,-5,1,-1,8,-3,-1
1481309341532927,1,1,0,-3,10,17,0,-1
1481309341546013,-3,-4,-8,-1,3,7,-4,-2
1481309341546013,-4,-5,2,2,0,15,-5,0
1481309341554938,0,0,-9,-1,7,9,-4,-1
1481309341554938,-5,-3,1,-11,2,7,-3,-1
1481309341561014,-5,-4,-8,7,6,7,-4,-2
1481309341561014,-3,-5,-12,-4,-2,6,2,0
1481309341569932,0,-3,-7,-8,1,7,-1,-2
1481309341569932,0,-5,-10,0,8,2,-2,0
1481309341584933,-3,-2,-13,-12,-25,7,-3,0
1481309341584933,-7,-3,5,-16,14,9,-1,0
1481309341592933,-1,-1,-1,2,7,6,1,0
1481309341592933,-5,-5,-6,-12,5,11,-2,-4
1481309341606940,-3,-2,-2,12,5,4,-9,-7
1481309341606940,-3,-1,-23,-8,-1,7,0,-2
1481309341614017,-4,-7,-9,-3,-4,2,-6,-4
1481309341614017,-3,-4,-31,-2,-2,14,1,1
1481309341621007,-2,-3,-10,14,10,-1,1,0
1481309341621007,-3,1,19,4,4,0,-3,-3
1481309341630443,-4,2,3,1,0,-5,-2,-1
1481309341630443,-3,-10,-35,-7,-5,-12,-7,-3
1481309341643950,-2,0,15,-4,3,6,1,-1
1481309341643950,1,0,-8,6,-4,-5,0,1
1481309341652950,1,3,7,-3,-1,-3,1,0
1481309341652950,1,1,12,3,7,-1,1,0
1481309341666952,-1,1,7,21,-14,1,4,4
1481309341666952,-1,-5,-1,-3,0,4,-2,0
1481309341673952,-1,3,3,6,-7,1,0,1
1481309341673952,0,3,-1,-7,5,-5,-2,1
1481309341680954,-1,-2,-5,4,4,-5,-1,-2
1481309341680954,3,1,3,0,-2,15,-1,2
1481309341689956,1,1,-4,12,-1,-33,0,1
1481309341689956,-3,-6,-5,8,-1,-22,-2,-3
1481309341703971,1,5,9,-21,1,-32,0,-2
1481309341703971,-1,-3,-4,11,-7,-24,2,-2
1481309341712955,-4,-4,-2,-16,8,22,-2,-4
1481309341712955,-2,-1,13,10,1,-1,2,0
1481309341726460,0,-1,-16,-27,-15,6,-2,2
1481309341726460,3,5,0,1,5,-11,-1,-3
1481309341735461,-2,1,-6,17,1,26,0,-1
1481309341735461,0,-7,15,-8,-8,21,0,1
1481309341740972,1,0,-10,-2,10,33,1,-3
1481309341740972,-3,-7,-13,-8,-3,33,0,-2
1481309341749968,-3,1,5,-12,-3,4,-3,-3
1481309341749968,0,6,2,-8,-10,6,0,-1
1481309341764039,-4,-3,-5,-3,0,-19,-3,-1
1481309341764039,-2,-1,1,15,7,-41,-2,-2
1481309341772969,1,-2,-7,-6,-16,-34,5,-1
1481309341772969,-2,3,5,-8,-4,-14,1,-2
1481309341786084,2,2,9,2,5,23,1,0
1481309341786084,-1,-2,-3,-2,-7,20,0,0
1481309341794970,-2,-3,4,-5,4,25,-3,0
1481309341794970,-1,1,2,4,1,-6,-1,0
1481309341801041,-1,-3,-2,14,6,-10,-1,-3
1481309341801041,-3,-6,-9,-23,-4,3,-2,-1
1481309341809970,-2,-5,-8,1,-5,0,-1,1
1481309341809970,1,0,-2,-5,1,0,0,0
1481309341823976,-4,-9,-18,7,-4,-5,-4,-2
1481309341823976,-3,0,-4,-10,-1,-3,-3,-1
1481309341832980,1,1,2,-12,-2,-2,-1,0
1481309341832980,-3,0,-6,10,-1,-7,-3,-3
1481309341845991,-1,0,-1,-4,10,8,-1,2
1481309341845991,-2,3,3,7,-7,-5,-1,0
1481309341855035,-1,-9,13,5,-3,0,1,-1
1481309341855035,1,7,-3,-5,-1,3,-2,0
1481309341860987,-1,-1,14,3,2,-4,2,0
1481309341860987,3,0,-20,7,5,-8,1,-1
1481309341869990,-3,2,-1,5,-2,-8,-3,-1
1481309341869990,-1,-3,5,-7,1,6,-1,-3
1481309341883989,0,2,6,6,-4,-5,3,2
1481309341883989,1,0,-2,-6,-2,-1,0,1
1481309341892992,0,1,1,3,2,-1,-1,-1
1481309341892992,-2,-9,-6,-13,6,-3,-3,-3
1481309341905992,0,0,-3,-4,-13,-1,0,-2
1481309341905992,-3,-1,-2,15,6,11,4,2
1481309341915026,0,0,-2,-13,-2,1,0,2
1481309341915026,-2,-4,4,13,1,-8,1,-2
1481309341921064,-2,1,-4,-4,-6,-1,-2,-2
1481309341921064,-1,3,10,8,7,-1,-1,0
1481309341930503,-3,2,2,4,1,-4,0,-1
1481309341930503,0,1,4,9,-4,6,0,1
1481309341944009,-3,-5,-3,-16,5,3,-1,-1
1481309341944009,0,-2,2,-3,-4,-2,-2,-2
1481309341953009,0,2,-6,-3,-1,-7,2,-1
1481309341953009,-3,-6,-5,2,-5,5,-3,-1
1481309341966090,-1,-2,1,-1,1,-6,-3,-2
1481309341966090,0,1,9,11,-2,2,3,-1
1481309341975010,0,0,-8,-20,-1,2,-4,-1
1481309341975010,-4,3,2,5,-1,-1,0,0
1481309341990017,0,3,11,9,-7,-7,-1,-2
1481309341990017,-2,-4,-4,-7,-2,1,-1,-2
1481309341992015,0,-4,-5,7,7,-6,-2,-1
1481309341992015,1,1,5,-10,-7,1,0,1
1481309342004077,1,-3,-6,9,9,4,-2,-2
1481309342004077,-5,-1,1,-5,0,-2,-2,-3
1481309342013012,-2,-2,-5,6,-13,-9,-3,-2
1481309342013012,1,-1,-5,-13,4,-7,-3,-1
1481309342026522,-4,-2,2,-4,-4,7,1,1
1481309342026522,-2,2,2,-2,-2,-8,-2,-1
1481309342035525,-3,-5,-5,7,-2,4,2,-3
1481309342035525,2,3,-1,10,-9,6,-1,0
1481309342051103,-1,-1,-10,-10,2,3,1,-2
1481309342051103,1,-3,-3,-8,-6,-4,-1,1
1481309342052029,-1,0,-5,-3,6,-2,-2,0
1481309342052029,-2,1,2,1,-6,2,-1,-1
1481309342064109,-1,-2,-5,-5,4,5,4,-1
1481309342064109,-1,1,5,-1,-7,-7,-2,-1
1481309342073030,-2,-1,-5,5,3,8,4,-1
1481309342073030,1,-4,0,-8,2,3,2,0
1481309342086102,-2,-3,-6,-5,-8,-8,-4,-1
1481309342086102,0,-1,-2,-7,1,-3,-1,0
1481309342095030,2,1,8,4,8,-3,-1,0
1481309342095030,1,1,8,2,-14,-4,-1,2
1481309342110032,-1,-1,-5,-10,2,2,-1,-1
1481309342110032,0,1,3,14,4,-2,0,-1
1481309342112032,-1,3,1,-2,0,-3,-1,0
1481309342112032,0,-1,1,-3,6,-1,-3,-1
1481309342124037,2,3,6,24,4,-8,1,1
1481309342124037,-2,-2,-1,-1,3,-6,-6,-2
1481309342133043,-3,0,0,-4,-3,-5,-2,-1
1481309342133043,-4,-1,-5,0,3,-2,3,-5
1481309342146152,-2,0,-4,-2,3,3,-2,-1
1481309342146152,1,2,1,-4,-10,0,2,2
1481309342155054,-3,-3,-8,7,-1,0,-1,0
1481309342155054,-5,-4,-6,-9,-9,-2,-2,-2
1481309342170124,1,1,3,4,4,-2,-1,-2
1481309342170124,-2,-3,-2,2,-3,0,-1,1
1481309342172054,0,0,6,-16,-3,5,0,1
1481309342172054,-1,0,-6,-3,-2,1,2,1
1481309342184052,1,0,1,-2,-1,-2,-2,1
1481309342184052,-1,-2,1,0,3,4,-2,-2
1481309342193054,-1,-4,-7,3,-4,-1,-1,-1
1481309342193054,-1,-2,-5,-7,2,3,0,0
1481309342206196,-1,-1,-2,2,-1,-2,0,-1
1481309342206196,0,-1,-5,-31,-7,4,1,-2
1481309342215054,2,0,1,36,10,2,-1,1
1481309342215054,2,-2,0,7,-3,-2,1,-2
1481309342230564,-2,-2,-2,-19,-3,0,-2,0
1481309342230564,2,0,1,17,6,1,2,-1
1481309342232065,-2,1,-2,-5,-2,-2,-2,-2
1481309342232065,1,2,-5,3,6,-1,2,1
1481309342244070,0,-2,2,1,-6,-5,-2,-1
1481309342244070,-2,0,3,7,10,1,1,0
1481309342253071,-3,-1,1,-4,-3,0,-3,-3
1481309342253071,0,1,-3,-6,-1,2,-5,0
1481309342266143,-2,-4,-1,1,0,-3,0,-1
1481309342266143,-1,-3,-6,1,-1,-1,1,1
1481309342275072,0,-3,-4,-3,-1,-19,-6,-1
1481309342275072,-3,-2,4,-2,-1,2,-1,0
1481309342290079,0,-1,-15,-3,0,-5,0,-1
1481309342290079,-1,0,2,10,1,1,-3,-2
1481309342292073,1,-2,0,-1,7,2,1,1
1481309342292073,-2,-3,1,0,-3,-8,-2,-2
1481309342304125,0,-1,-1,-2,-1,1,-2,0
1481309342304125,-4,-2,-3,-2,-6,-7,-1,-1
1481309342313073,0,2,-1,-8,2,-1,-1,-3
1481309342313073,0,-2,0,3,2,-1,-4,0
1481309342326585,-5,-4,-1,6,2,-8,-2,0
1481309342326585,0,-1,-2,-3,-3,-3,-10,0
1481309342335583,-1,0,3,-4,-4,3,16,1
1481309342335583,0,-2,-5,5,-1,-1,-1,-1
1481309342350057,-1,1,-4,-9,-1,-6,-2,-3
1481309342350057,1,-1,0,-6,0,8,1,-1
1481309342352056,1,-2,2,12,3,2,-4,-1
1481309342352056,-1,-1,0,-30,-3,-9,-2,-1
1481309342364055,2,2,2,17,0,7,9,3
1481309342364055,6,1,0,-4,-4,2,-2,-3
1481309342373057,-11,-4,-2,12,-4,7,0,-2
1481309342373057,-2,-1,0,-3,1,-1,-3,0
1481309342386128,-2,0,4,-16,-4,6,-3,-3
1481309342386128,4,0,0,22,3,-3,5,1
1481309342395060,4,2,-2,-28,-6,-8,-6,0
1481309342395060,2,4,-2,18,2,8,-1,-3
1481309342410061,-5,-4,0,-12,4,-16,-8,-1
1481309342410061,-4,0,-3,14,5,-3,-1,-1
1481309342412058,-3,-2,-4,-15,-5,0,-4,-4
1481309342412058,-1,1,-3,9,3,-6,3,2
1481309342424064,1,0,-2,0,1,2,-5,-2
1481309342424064,0,-2,3,-9,0,2,-2,0
1481309342433068,-1,-3,-3,-7,2,4,-2,1
1481309342433068,7,-1,0,7,-1,-10,-13,-4
1481309342446152,-3,1,2,8,-1,4,29,1
1481309342446152,-3,0,0,16,-3,-4,-4,-1
1481309342455079,1,2,1,-13,-8,0,2,2
1481309342455079,2,-1,-3,-19,0,0,2,0
1481309342469080,2,0,2,5,-10,8,-5,-3
1481309342469080,-4,0,-3,3,-1,-7,-5,-1
1481309342478079,1,-1,-2,-7,3,-1,5,0
1481309342478079,-1,-1,-2,-1,-3,4,0,1
1481309342493080,-2,-6,-2,3,-2,0,-5,-2
1481309342493080,-3,0,-1,-9,2,5,3,-2
1481309342494079,0,0,-5,0,-4,-2,-8,-1
1481309342494079,-2,-1,-2,4,-1,-4,8,-3
1481309342506080,1,1,2,-13,-3,-4,-38,2
1481309342506080,0,-4,-7,0,5,2,7,-2
1481309342515081,-1,-4,4,-4,-2,7,1,-3
1481309342515081,-1,0,-1,5,2,-5,4,1
1481309342530590,2,1,-4,-6,-1,6,-3,-2
1481309342530590,7,0,2,-8,-1,2,1,3
1481309342531589,-10,1,-3,9,2,-4,1,0
1481309342531589,1,-3,1,20,3,1,-14,-4
1481309342543725,10,5,2,-37,-7,7,24,5
1481309342543725,-6,-1,-4,26,1,-1,-6,-2
1481309342552712,-10,-8,0,1,-5,1,8,-3
1481309342552712,3,4,5,8,1,4,-6,2
1481309342566715,-3,-1,2,-6,-11,14,5,-2
1481309342566715,4,1,3,-7,3,-2,4,1
1481309342574714,4,4,0,8,3,-1,-11,-1
1481309342574714,-7,-4,-5,-9,-4,-9,0,0
1481309342589719,0,0,2,16,7,-2,1,-2
1481309342589719,-4,-1,-2,-13,-6,5,-1,-2
1481309342591715,3,5,0,7,3,-10,-5,0
1481309342591715,-3,-2,3,5,-7,15,10,-1
1481309342603717,0,-3,-5,-1,5,-9,3,-1
1481309342603717,-2,-3,-2,-6,-4,-7,-6,-2
1481309342612716,4,1,-1,-2,3,-8,-5,0
1481309342612716,-6,0,-1,-4,1,-3,4,-1
1481309342626224,-5,-4,0,-3,-3,-4,-3,0
1481309342626224,-4,-5,-2,6,-1,1,1,1
1481309342635225,6,1,-1,1,1,2,2,1
1481309342635225,0,-1,-2,-2,-4,5,2,-2
1481309342657919,-4,-2,1,-2,3,-8,-5,0
1481309342657919,-2,-2,0,-9,-11,25,2,0
1481309342658916,5,0,-1,-5,0,-3,5,-1
1481309342658916,-2,-2,-3,-13,-3,-3,-10,-1
1481309342664029,-5,0,-1,25,10,-13,-2,-2
1481309342664029,1,1,-3,-11,-2,2,3,0
1481309342672917,2,1,2,11,-2,0,-1,0
1481309342672917,2,-3,0,-9,1,4,-1,-1
1481309342685990,-1,-1,-5,-6,-5,-7,-1,0
1481309342685990,-7,-3,0,9,8,-1,-1,-2
1481309342694918,-3,-6,-5,-12,-8,5,-3,-2
1481309342694918,0,5,0,4,2,-2,1,1
1481309342709998,5,3,-4,8,-3,4,-1,-1
1481309342709998,0,-1,4,-3,-2,-6,0,0
1481309342711922,-3,-5,-5,-2,-7,-13,-7,-3
1481309342711922,-3,-1,4,-16,0,15,5,1
1481309342723927,4,1,3,34,4,5,2,2
1481309342723927,0,3,-1,-9,-2,-7,-1,-2
1481309342732959,-2,-2,-4,-16,-5,-8,-3,1
1481309342732959,3,-1,-2,13,5,-1,-6,-3
1481309342746060,0,-2,-3,-15,-5,4,6,0
1481309342746060,-6,-5,-1,1,-3,-4,-2,-3
1481309342754991,3,2,1,15,10,2,0,-1
1481309342754991,-3,-2,3,-10,-6,0,-4,-1
1481309342770005,-3,-1,-3,3,-1,2,1,-2
1481309342770005,4,-4,-1,-15,-3,-8,-10,0
1481309342771994,-3,3,3,21,6,12,20,0
1481309342771994,-3,-1,-1,-7,-5,-9,-5,0
1481309342784065,-3,-2,-2,1,1,-8,-2,-1
1481309342784065,3,1,-6,-1,-5,-5,-9,0
1481309342792993,-4,-2,2,-9,-1,-3,-3,-2
1481309342792993,-3,0,-2,17,8,-8,1,-1
1481309342806006,-1,2,1,1,-2,2,-4,-1
1481309342806006,-2,1,2,-10,-5,-3,8,-2
1481309342814996,-2,-2,-3,4,1,-3,-6,-1
1481309342814996,2,-5,-4,12,-2,-9,3,1
1481309342829500,-3,-3,-5,-3,1,-8,-9,-3
1481309342829500,-1,-2,1,4,7,3,0,-2
1481309342836501,2,3,2,-4,-11,10,4,3
1481309342836501,-1,-2,-2,10,3,-10,-8,-2
1481309342843508,-3,-3,-4,-31,-14,6,-7,-2
1481309342843508,5,1,0,9,5,-1,12,3
1481309342852509,-7,-4,-4,-15,2,-1,-8,-3
1481309342852509,5,1,1,2,-5,1,4,0
1481309342866579,0,0,3,3,1,4,0,0
1481309342866579,0,0,-1,-1,1,-4,-1,-2
1481309342873511,-1,-1,1,-6,1,0,0,1
1481309342873511,-3,0,-1,-7,0,9,-1,-3
1481309342889512,7,2,1,13,5,-5,5,1
1481309342889512,-11,-2,-3,-5,-8,4,-6,-2
1481309342896582,-1,2,-3,7,-1,-3,-5,-1
1481309342896582,-3,0,-2,12,0,-4,1,0
1481309342903515,3,1,2,-7,11,-5,-6,1
1481309342903515,-1,-3,-7,2,-12,2,-19,-2
1481309342912510,3,3,1,0,2,6,36,0
1481309342912510,-6,-5,-4,-4,2,-14,-36,-1
1481309342927020,11,3,1,3,-1,3,36,1
1481309342927020,-8,-5,-1,-3,0,-2,-31,-3
1481309342934021,2,-3,0,-2,3,-6,-2,0
1481309342934021,3,1,0,-3,-7,14,4,-2
1481309342949351,-6,-4,-5,-1,4,-11,-14,0
1481309342949351,1,1,3,-4,-3,4,9,0
1481309342963380,-3,-3,-3,1,-2,3,14,-2
1481309342963380,10,0,0,-6,2,9,8,3
1481309342972283,-9,-4,-3,-1,-5,11,-10,-5
1481309342972283,-6,-3,-1,-3,2,-26,-7,-2
1481309342974282,4,1,1,2,-1,4,4,4
1481309342974282,-4,1,-4,-17,-1,-10,1,2
1481309342986353,-7,-2,-1,22,5,-4,1,-3
1481309342986353,2,2,0,-13,3,1,1,1
1481309342995281,0,-3,-5,-9,-3,-2,-22,-4
1481309342995281,-6,-7,-2,-13,0,8,14,-2
1481309343009284,-4,0,-2,14,-6,6,-12,-1
1481309343009284,5,2,4,0,2,6,-13,0
1481309343016355,0,1,2,5,2,-5,-8,0
1481309343016355,-3,1,-3,-6,-4,6,11,2
1481309343032790,2,-2,-2,0,-2,0,-2,0
1481309343032790,6,0,-3,-2,-6,3,11,0
1481309343034291,-9,-3,-4,-2,-5,2,-6,-1
1481309343034291,0,-1,-1,4,3,-2,12,-6
1481309343045867,-3,-1,1,-11,7,-3,-2,2
1481309343045867,3,1,1,3,0,1,11,3
1481309343054807,-1,-3,-2,1,-2,0,-8,0
1481309343054807,-4,0,0,10,0,4,-5,-2
1481309343069802,-5,-2,-3,-40,-13,28,4,1
1481309343069802,1,2,1,23,9,5,13,2
1481309343075798,1,0,-1,-12,-9,-3,-8,-2
1481309343075798,-4,-1,-1,1,3,6,-3,0
1481309343092872,-2,-6,-2,6,-2,-9,6,-3
1481309343092872,-1,-3,-6,-13,-2,-3,3,-1
1481309343093800,-17,-3,-3,2,3,15,-3,-2
1481309343093800,6,1,1,0,-8,1,0,0
1481309343105800,2,1,-2,0,1,-33,-5,-2
1481309343105800,-5,-1,-1,6,2,10,4,-1
1481309343114802,2,-5,-7,0,6,-9,-3,0
1481309343114802,1,-3,0,-4,-2,-5,-1,-1
1481309343129823,-2,-1,-1,3,3,-12,-7,-1
1481309343129823,-2,2,-1,-20,-8,-8,1,-3
1481309343136323,5,-1,-1,14,5,-1,-1,-5
1481309343136323,-1,-1,-5,-8,-8,-3,1,1
1481309343152665,0,0,4,1,3,8,-5,-1
1481309343152665,1,-3,1,11,-1,-2,6,-1
1481309343154596,2,-1,0,-5,-6,-6,-4,-2
1481309343154596,-3,-2,-1,-6,9,-15,-7,-2
1481309343166596,2,2,-1,-1,-5,8,1,0
1481309343166596,-1,-1,-3,6,-4,1,2,0
1481309343175597,-2,-1,4,-4,-2,2,4,-1
1481309343175597,2,-1,-2,-7,4,-9,-7,-3
1481309343189601,-4,-4,-11,16,6,-1,1,0
1481309343189601,-1,-3,-2,-6,-10,24,8,1
1481309343196608,2,1,1,-5,-2,-8,-6,-3
1481309343196608,0,3,6,24,1,12,3,1
1481309343212669,-1,-1,6,-8,-1,6,-1,-1
1481309343212669,-4,-6,-25,-7,-3,-11,-3,-3
1481309343213600,1,1,6,6,4,4,0,1
1481309343213600,-3,-1,-4,0,-3,-2,-1,0
1481309343226604,4,1,4,-2,-3,-13,-2,0
1481309343226604,-15,-5,2,5,6,-10,-4,-1
1481309343235604,1,-2,-3,-9,-3,-6,0,2
1481309343235604,-2,-3,-4,2,7,-14,-5,-1
1481309343249183,-1,-2,0,5,-2,-1,-1,-2
1481309343249183,6,2,2,0,8,-5,-2,0
1481309343256115,-6,-3,-4,-14,-7,5,-3,-2
1481309343256115,-2,-1,5,-5,0,-7,1,-1
1481309343273118,2,1,6,10,-1,21,5,1
1481309343273118,3,-1,-8,-12,-9,-6,-1,-1
1481309343274114,-4,0,1,22,15,-5,-1,-2
1481309343274114,2,-1,0,2,3,2,2,1
1481309343286186,-4,-2,0,-14,-5,-6,-3,-2
1481309343286186,3,0,0,-3,-1,9,1,-1
1481309343295114,-2,-1,-13,0,-1,-4,1,3
1481309343295114,-3,-2,-1,-8,-1,7,-3,-3
1481309343309186,0,-2,-1,-1,-1,15,4,-2
1481309343309186,0,2,7,-5,2,-3,-1,0
1481309343316188,-1,-4,6,2,1,-2,-3,-1
1481309343316188,-1,2,-2,9,-10,8,4,0
1481309343332689,0,0,-2,-5,0,0,-2,0
1481309343332689,3,0,3,11,5,-1,-1,-1
1481309343334190,4,-1,3,-6,-15,5,1,0
1481309343334190,-9,-1,-4,-5,-1,-5,-2,0
1481309343346268,2,-1,-3,-4,1,0,-2,-1
1481309343346268,-1,4,2,-1,1,-4,-1,-2
1481309343355198,-2,1,-6,8,3,-3,-1,-1
1481309343355198,3,-2,3,-9,-1,3,1,0
1481309343369269,-4,-2,-8,0,-5,-6,-1,1
1481309343369269,0,-3,0,-4,-3,1,0,-1
1481309343376200,-1,1,3,-6,-2,-7,-4,-2
1481309343376200,0,0,0,1,2,-3,-3,-2
1481309343392202,2,0,1,-18,2,-1,0,0
1481309343392202,0,-5,9,36,2,5,1,1
1481309343394200,-3,-5,-13,-5,0,2,-1,-2
1481309343394200,-1,-1,-3,-3,-1,-2,-1,2
1481309343406202,-1,-2,-5,-19,-2,-2,-3,-1
1481309343406202,0,4,7,10,3,10,-2,-2
1481309343415201,1,2,1,-5,7,-1,2,0
1481309343415201,-3,-6,-8,8,-8,0,-4,-2
1481309343429723,1,4,9,-5,-7,3,-3,-1
1481309343429723,1,-4,-10,-16,3,-8,1,-1
1481309343436224,-5,-1,1,10,-5,-2,-2,-1
1481309343436224,2,-1,-3,-10,6,-5,-1,1
1481309343452299,-2,-2,-3,12,1,2,2,-2
1481309343452299,2,-3,-8,-15,-7,-11,-1,1
1481309343454233,1,0,5,-1,3,9,3,-1
1481309343454233,-3,0,-3,-6,-3,-8,-1,0
1481309343466344,2,-1,2,-3,0,-4,-7,-2
1481309343466344,-3,-1,-5,23,15,-4,1,-1
1481309343475230,2,0,7,-2,1,-10,-5,-2
1481309343475230,1,-1,4,-6,4,8,1,-2
1481309343489235,-2,-3,-2,-7,-13,-1,6,3
1481309343489235,-4,-2,9,-10,-8,-7,-3,-2
1481309343496304,-4,-4,-16,-10,1,9,3,0
1481309343496304,2,0,7,19,4,-14,-1,-3
1481309343512305,-2,1,-14,3,12,-10,0,2
1481309343512305,-2,-2,6,-1,-7,-1,-3,-1
1481309343514233,2,3,1,-1,1,-12,0,0
1481309343514233,0,4,3,0,-5,-4,-1,0
1481309343526235,-3,-3,-2,6,2,2,2,-2
1481309343526235,-1,-1,-3,-17,-3,-11,-3,1
1481309343535241,-1,-5,-2,7,0,-8,-1,-1
1481309343535241,1,0,-4,-12,0,12,1,2
1481309343549322,-3,1,0,5,-8,-2,-1,-1
1481309343549322,1,1,-4,-10,-1,7,-2,-3
1481309343556253,0,0,-5,-1,-3,-5,-2,-2
1481309343556253,-2,-7,-17,-45,-29,24,-1,-3
1481309343572314,1,1,4,59,34,-4,-5,-4
1481309343572314,-3,-3,3,5,-8,20,3,4
1481309343574251,-1,-2,3,1,0,-3,-1,0
1481309343574251,1,2,-2,-10,5,-3,4,1
1481309343586322,0,-1,-1,2,-1,-3,1,-2
1481309343586322,1,-2,-6,-3,2,-7,1,-3
1481309343595251,-3,-4,-4,-12,-3,10,1,0
1481309343595251,0,1,10,37,6,1,-2,-1
1481309343609325,-1,0,4,-22,-15,-3,-4,0
1481309343609325,2,-1,-13,-7,4,-4,-1,0
1481309343616324,-9,-1,6,11,-10,26,4,-2
1481309343616324,1,-1,-2,-4,-4,-8,0,-1
1481309343632760,-3,-1,3,-7,-3,0,-1,0
1481309343632760,0,1,1,-10,-3,2,-2,-1
1481309343634260,5,3,0,4,-1,-12,-3,-1
1481309343634260,-2,1,-2,5,-3,-9,-2,-1
1481309343646337,0,-4,-10,-4,3,12,1,0
1481309343646337,-5,-1,1,5,2,-2,-1,-3
1481309343655269,1,3,3,-4,-2,4,3,1
1481309343655269,-2,-4,-6,16,8,1,-1,-2
1481309343669339,1,-3,-3,-15,-16,-5,-1,-2
1481309343669339,-1,-3,-2,-7,1,1,-3,-1
1481309343676269,1,-1,0,0,3,-2,0,0
1481309343676269,-2,2,2,-5,0,0,-2,-2
1481309343692297,-2,1,0,-3,-2,-1,0,-2
1481309343692297,1,1,0,2,4,6,0,1
1481309343694268,-1,-2,-1,8,-2,10,0,-2
1481309343694268,-2,-3,-1,-9,-3,1,-1,-1
1481309343706274,0,0,2,-7,-4,5,-2,0
1481309343706274,0,0,-3,-17,-14,11,-2,-4
1481309343715270,3,1,3,26,9,-8,1,1
1481309343715270,0,1,1,4,0,-3,1,1
1481309343729860,-1,-1,-2,-3,5,0,1,0
1481309343729860,-2,2,-3,-16,-4,-5,0,-1
1481309343736360,-2,-2,-7,8,4,-4,-2,0
1481309343736360,-2,0,5,-9,-5,4,2,1
1481309343751957,2,3,4,14,0,8,-2,0
1481309343751957,-2,-3,-3,0,3,-4,-2,-3
1481309343758886,-1,-2,-1,-9,-1,-1,3,0
1481309343758886,-1,-1,2,2,6,-3,-1,-1
1481309343765958,-2,-2,-3,2,-1,-7,-1,-1
1481309343765958,-1,1,2,-1,0,-6,-1,0
1481309343774890,0,-2,3,-8,-8,24,-3,-2
1481309343774890,-3,-2,-4,-1,-3,-4,-3,0
1481309343789890,3,0,2,-5,0,16,4,1
1481309343789890,-2,-1,0,14,0,-2,-3,-3
1481309343795959,-1,-4,-1,-11,-6,-7,-2,-1
1481309343795959,0,-3,-16,3,7,-12,-5,-1
1481309343811960,-2,-5,-3,12,2,-1,-2,-2
1481309343811960,-2,0,1,-6,2,-3,0,0
1481309343818961,-2,2,-1,-18,-3,0,1,-1
1481309343818961,1,-4,2,10,5,7,1,-3
1481309343835399,-4,-1,-4,-8,-8,-9,-4,-1
1481309343835399,0,-2,2,7,-2,5,3,1
1481309343836899,1,0,-1,-17,1,-22,-5,-1
1481309343836899,0,1,-3,7,4,2,-2,0
1481309343849444,-3,1,-4,-3,4,0,0,-2
1481309343849444,1,-2,1,-4,-3,-3,0,0
1481309343856378,-2,-3,-6,16,-1,1,-1,1
1481309343856378,-2,1,4,11,0,12,8,1
1481309343872376,-2,0,-4,-6,-1,-7,-2,-1
1481309343872376,2,4,4,4,3,1,-3,1
1481309343878445,1,-2,-3,-1,1,0,-2,-1
1481309343878445,2,1,2,3,-1,1,3,-1
1481309343895439,5,1,3,-7,-1,0,-2,-1
1481309343895439,-16,-4,-2,13,-10,8,3,2
1481309343896377,1,-2,0,2,0,2,-1,-3
1481309343896377,-2,0,-7,-33,-13,13,0,0
1481309343909376,0,-1,-2,3,-3,-13,-2,-3
1481309343909376,2,1,-3,11,13,-1,1,2
1481309343916448,1,1,5,-1,5,-15,-7,-2
1481309343916448,-3,-3,0,5,-6,-2,-5,-1
1481309343931956,-2,-1,-1,-8,8,1,-1,-1
1481309343931956,1,1,-6,1,2,-3,-2,-1
1481309343938959,-2,0,0,-9,-6,-6,-3,-1
1481309343938959,2,-2,0,3,5,0,0,-1
1481309343955491,-1,-2,-1,-9,-6,-4,3,1
1481309343955491,2,-2,-3,-7,-4,-7,-4,0
1481309343956464,-1,-2,3,9,4,2,2,1
1481309343956464,-1,0,-4,-19,-11,-12,-2,1
1481309343968540,-1,1,3,22,1,15,6,0
1481309343968540,1,1,1,-6,-11,12,-2,-3
1481309343977466,-1,0,-6,-17,0,5,1,-1
1481309343977466,-1,-2,0,29,15,-12,-6,-6
1481309343991472,0,-1,-1,-11,-3,-5,-2,1
1481309343991472,1,1,-3,2,3,-12,-5,-3
1481309343998538,-1,-1,-2,-4,-2,1,0,-1
1481309343998538,-1,0,11,4,-3,3,0,0
1481309344015477,-2,-3,-6,-2,2,3,-3,-1
1481309344015477,-2,-3,-1,2,-3,-5,3,0
1481309344016468,1,1,-3,-4,-4,1,-5,-3
1481309344016468,-1,1,3,6,11,6,5,2
1481309344028974,-4,-4,-2,5,-5,6,-2,0
1481309344028974,-2,-3,-1,-3,2,-5,-1,-1
1481309344037976,0,-1,-8,-3,-1,-10,0,-2
1481309344037976,0,1,1,-6,-8,6,-1,-2
1481309344051557,0,1,-4,2,2,-3,0,-1
1481309344051557,-1,0,3,0,-1,2,0,1
1481309344058485,-3,-2,-6,1,-4,7,0,-1
1481309344058485,-4,-3,-6,-7,0,-4,-4,-3
1481309344075485,0,-1,-4,-5,-2,-3,3,-1
1481309344075485,0,0,1,8,-2,5,-1,-2
1481309344077485,-4,-3,3,-4,2,3,-1,0
1481309344077485,0,-1,5,12,-6,-7,-5,1
1481309344088488,-3,-4,-23,-11,3,-2,-2,-1
1481309344088488,1,-3,-15,-14,-4,7,-1,1
1481309344097491,-1,-1,-4,-4,2,4,-4,-2
1481309344097491,1,2,0,11,9,1,1,-1
1481309344112489,-2,-1,10,-5,-6,-5,-5,-4
1481309344112489,-1,-4,-17,-7,0,-2,-1,-2
1481309344118557,2,-1,-1,2,-7,16,4,1
1481309344118557,-2,-1,-1,-8,-11,0,-2,-1
1481309344135495,0,0,15,7,6,0,2,1
1481309344135495,0,-1,-15,1,4,-2,-1,-3
1481309344136995,-2,0,6,4,-4,-7,-3,-1
1481309344136995,1,2,-1,-4,-3,2,-1,-1
1481309344149521,-1,3,7,4,2,2,0,0
1481309344149521,0,0,9,-8,-1,-8,-2,-1
1481309344157451,1,-2,-2,16,18,-11,-3,0
1481309344157451,-3,-4,-8,-8,-17,2,-2,-2
1481309344172454,0,-1,3,-8,-8,-5,-2,-1
1481309344172454,-3,-4,6,19,10,6,2,0
1481309344178524,-2,-1,-1,-21,-7,-2,-1,-2
1481309344178524,1,2,4,1,6,-1,1,-1
1481309344195460,0,-5,-12,-14,-7,3,0,-3
1481309344195460,1,0,-9,-1,-1,0,1,0
1481309344196452,-2,0,5,8,-4,4,1,0
1481309344196452,0,2,8,-1,1,-5,-4,-2
1481309344208474,-4,-6,-15,-12,0,0,0,1
1481309344208474,0,0,5,2,9,-2,-3,-2
1481309344217456,-2,0,-3,3,-3,-1,2,-1
1481309344217456,1,-1,-1,-8,-3,5,1,-1
1481309344240462,0,0,-7,9,5,-10,-6,-2
1481309344240462,2,2,15,8,-7,2,0,1
1481309344241965,0,-4,-14,-2,5,2,1,1
1481309344241965,-2,-1,-6,-11,-1,-5,-2,-2
1481309344255474,0,2,7,7,1,1,3,-1
1481309344255474,0,0,4,-6,-8,-6,-1,-1
1481309344256470,-1,1,-2,4,4,-3,-1,0
1481309344256470,-2,-6,-12,0,-4,-4,-3,1
1481309344268543,1,0,4,0,0,6,2,1
1481309344268543,0,-1,-2,-5,-3,-1,-1,0
1481309344277471,-2,1,7,1,-4,-1,1,0
1481309344277471,2,-2,-5,9,4,9,1,-1
1481309344292509,1,1,5,-3,-7,9,1,0
1481309344292509,0,-1,0,-12,-3,-5,-4,-2
1481309344298543,1,-1,-3,-16,-2,-11,-4,-1
1481309344298543,-2,-1,-2,18,10,2,4,0
1481309344315485,0,-1,3,-5,-1,-7,-6,-1
1481309344315485,0,2,1,14,12,9,6,2
1481309344316472,2,0,6,-12,-13,-1,-1,0
1481309344316472,-1,-2,0,11,26,-2,-2,0
1481309344329057,-2,-4,-16,-12,-15,-6,-2,-1
1481309344329057,0,3,7,8,-1,4,3,0
1481309344338057,-1,1,0,3,5,1,-1,-2
1481309344338057,-1,-1,5,-9,-9,1,0,0
1481309344351634,-1,-1,1,13,2,1,1,0
1481309344351634,-1,-1,3,4,3,-3,-4,-2
1481309344358561,-1,0,-2,2,-11,9,4,-1
1481309344358561,1,-4,-4,-11,-10,-1,-2,-3
1481309344382651,0,0,7,12,2,3,-1,-1
1481309344382651,-2,-2,-5,-20,-9,-1,-1,-1
1481309344384568,-2,0,4,10,12,-3,-1,0
1481309344384568,-3,-5,-5,1,-5,-4,-1,-2
1481309344388636,-1,1,3,3,3,1,-2,0
1481309344388636,-1,0,-4,-2,-5,-7,-1,-2
1481309344397566,-2,-4,-1,10,3,-2,-3,-1
1481309344397566,-2,-2,-3,-17,-11,1,0,0
1481309344411637,1,2,0,-5,9,2,0,1
1481309344411637,2,0,-3,15,-23,-1,0,0
1481309344418638,0,0,-2,-15,17,-1,2,0
1481309344418638,-2,-3,-6,17,1,-4,-2,-2
1481309344435169,1,-1,3,-2,4,1,1,-1
1481309344435169,-1,-1,2,-6,-7,0,-3,-2
1481309344437169,1,-2,-3,-1,-5,2,1,-1
1481309344437169,2,1,1,1,1,3,-1,0
1481309344448760,-2,-3,0,6,-2,0,0,-1
1481309344448760,-3,-2,-4,-8,6,0,-3,-1
1481309344457690,-2,-5,-5,9,-5,1,-4,-1
1481309344457690,1,2,1,-16,0,2,1,-1
1481309344471692,-5,-1,0,14,-1,-1,-2,-2
1481309344471692,0,-2,-6,-1,-2,-2,-1,-2
1481309344478764,-3,-1,1,-2,-3,4,-2,-2
1481309344478764,0,1,-8,-5,-4,-5,1,-1
1481309344494763,1,1,3,0,0,1,-1,0
1481309344494763,-3,-4,-2,-11,5,-11,-2,2
1481309344496692,-2,0,5,8,-5,-1,3,2
1481309344496692,1,-1,0,-7,4,-7,-1,-2
1481309344508693,-2,2,3,-3,-4,2,-4,-1
1481309344508693,-1,-1,-3,-13,2,-3,-1,0
1481309344517694,-1,0,-6,24,-3,0,-5,-2
1481309344517694,-3,-1,1,-14,-5,2,-2,-2
1481309344532275,-1,-5,-13,-9,1,-2,-2,0
1481309344532275,0,-1,5,2,1,3,1,-1
1481309344538778,1,-1,-8,-32,-12,0,-2,-1
1481309344538778,-3,-2,1,20,5,-3,-2,0
1481309344554854,2,2,5,9,0,6,4,0
1481309344554854,-1,-4,-5,1,18,0,1,-5
1481309344556783,-1,0,0,-1,0,-7,-1,1
1481309344556783,-4,-6,-8,-9,-2,-11,-4,-4
1481309344568855,-2,-2,-5,-17,-24,3,2,1
1481309344568855,-2,-1,2,15,11,-2,2,-2
1481309344577787,0,3,-5,-6,1,-3,-2,2
1481309344577787,1,3,1,-5,0,4,1,2
1481309344591786,-2,-1,-2,1,-4,-7,-4,-3
1481309344591786,-1,-1,-3,-1,-5,5,-1,1
1481309344598790,-2,-1,0,4,-2,2,-2,-1
1481309344598790,1,-2,1,-1,-3,-1,3,3
1481309344614858,-2,0,-8,-19,-4,-5,-3,-2
1481309344614858,-1,1,1,46,6,8,-1,-2
1481309344616788,-1,-4,1,-8,-12,2,-6,-4
1481309344616788,1,3,0,-12,6,-3,1,2
1481309344628873,-9,-5,1,-6,7,-3,3,-2
1481309344628873,3,4,2,-7,-3,-14,2,-1
1481309344637874,-8,-5,-11,1,31,-8,-61,-6
1481309344637874,3,1,16,21,22,17,44,8
1481309344651953,18,-6,-19,-25,-40,4,-8,0
1481309344651953,-23,-2,-3,-28,-36,10,12,1
1481309344658881,1,4,13,14,42,-16,-9,2
1481309344658881,9,10,15,41,10,8,-22,3
1481309344674884,-6,7,20,-28,-28,-1,24,0
1481309344674884,-6,-38,-54,4,10,-18,-10,-8
1481309344676883,12,24,15,52,-46,2,1,-11
1481309344676883,-48,-32,-7,-46,-18,-9,-17,-10
1481309344688885,6,0,-2,-4,13,14,-9,1
1481309344688885,19,38,52,22,12,27,27,13
1481309344697883,14,-7,-6,26,-31,-9,-10,10
1481309344697883,18,19,6,-3,2,-56,-49,-9
1481309344711956,-16,-6,-3,40,40,2,22,-6
1481309344711956,13,15,23,-60,2,-28,-6,10
1481309344718957,0,0,0,-22,-30,0,-12,-2
1481309344718957,-1,0,-4,26,12,27,-6,0
1481309344734936,1,-4,-4,6,18,-31,-26,-3
1481309344734936,3,3,-9,16,16,-22,8,-4
1481309344741435,-6,0,1,-9,13,14,1,-1
1481309344741435,-7,-8,-13,-7,-17,14,11,-4
1481309344748639,-1,-5,-5,11,-2,0,-25,-1
1481309344748639,-2,-1,0,11,-2,24,5,-2
1481309344757637,-11,-13,-11,-17,-3,7,19,0
1481309344757637,3,-5,-9,3,-3,5,-2,0
1481309344771708,2,9,-4,-25,-1,-1,17,2
1481309344771708,-3,-6,-1,-9,-3,13,-23,-1
1481309344778708,-1,-8,-14,9,2,-8,19,-1
1481309344778708,6,4,6,-29,2,16,29,3
1481309344794711,2,4,4,20,1,2,-18,2
1481309344794711,-7,-5,3,17,14,6,22,-5
1481309344801644,0,-6,-6,-4,22,4,-11,1
1481309344801644,3,1,-11,-15,-13,-24,9,4
1481309344808638,-15,-19,12,-27,-8,29,0,-4
1481309344808638,9,4,-9,2,-2,-27,-16,2
1481309344817640,1,5,12,-21,9,23,20,4
1481309344817640,7,4,-25,-23,-24,-43,-11,1
1481309344832147,-2,-6,11,30,14,44,5,-1
1481309344832147,0,-1,-14,-7,-20,-2,-3,-1
1481309344838649,-4,-2,6,12,-1,-16,2,-6
1481309344838649,-3,-2,8,7,0,35,0,-2
1481309344854225,4,1,-16,13,4,3,11,4
1481309344854225,-7,-10,-1,11,8,15,-11,-1
1481309344869162,2,0,-7,-5,-8,-1,7,-1
1481309344869162,1,-1,22,8,-14,23,6,1
1481309344878158,5,7,1,28,18,-4,1,2
1481309344878158,-3,-3,-16,-11,4,-1,-18,-1
1481309344879157,-6,-6,1,-35,-6,13,4,-2
1481309344879157,3,0,-18,6,13,-9,41,3
1481309344891159,-3,-1,-8,-10,-13,-3,-16,-2
1481309344891159,1,1,-2,-7,-6,-5,18,0
1481309344900159,0,-4,0,12,-1,-11,34,3
1481309344900159,-3,-5,-9,-33,5,-2,-27,-5
1481309344914229,5,3,8,28,35,-3,-2,1
1481309344914229,5,8,28,6,-11,-3,2,7
1481309344921229,-4,-11,-29,-16,10,20,-28,-6
1481309344921229,1,7,19,-2,3,-7,-2,-3
1481309344937745,-4,-12,-33,-3,-11,4,-52,0
1481309344937745,-4,-5,-5,-5,13,0,5,-14
1481309344939244,-5,8,10,39,25,-24,2,1
1481309344939244,5,-5,-3,-1,20,4,3,9
1481309344951257,-11,-9,-19,-23,-40,2,-17,-14
1481309344951257,2,-2,-6,5,15,-10,-4,-1
1481309344960255,-10,-15,-23,12,-17,-4,3,0
1481309344960255,1,6,16,-8,-4,20,-3,-2
1481309344974255,-7,5,10,-22,3,-22,9,0
1481309344974255,-2,-8,-14,10,9,4,5,2
1481309344981357,-10,-9,-7,-32,1,0,13,-7
1481309344981357,-3,2,10,24,20,9,-43,-12
1481309344997254,-11,-11,-18,-36,14,-4,19,-1
1481309344997254,-1,3,4,-37,-69,-9,-2,0
1481309344999253,3,4,10,19,10,13,-15,0
1481309344999253,-12,-12,-20,7,-20,0,15,-1
1481309345011278,5,6,4,-13,40,17,25,-1
1481309345011278,-1,1,3,55,20,-1,-15,-2
1481309345020258,-1,0,1,-22,-21,-10,4,1
1481309345020258,2,-1,-5,18,7,3,4,1
1481309345034771,6,7,9,1,-26,-19,4,-1
1481309345034771,-8,-4,1,-36,-5,12,-7,0
1481309345041768,3,2,-1,21,8,1,0,2
1481309345041768,-4,-1,0,8,-10,8,0,-3
1481309345057281,7,3,1,-19,-19,-20,-3,4
1481309345057281,-4,-2,-6,-2,-1,-5,-27,-3
1481309345059276,3,-1,-11,-13,-12,-11,19,1
1481309345059276,-5,-7,27,-26,4,15,-11,2
1481309345071281,-7,-2,8,36,6,-15,39,-4
1481309345071281,6,0,-17,-6,1,4,-3,5
1481309345080281,-11,-9,-11,-10,6,4,-11,-12
1481309345080281,-7,-4,-11,5,-21,-22,-54,-9
1481309345094281,2,-2,5,8,-6,9,-1,3
1481309345094281,-7,-8,5,-6,3,7,2,-9
1481309345101351,2,5,22,-4,-8,9,-13,0
1481309345101351,2,1,-5,9,2,-21,-1,1
1481309345117375,2,4,-2,12,1,-2,-16,1
1481309345117375,1,3,-9,-14,-7,-1,13,3
1481309345119285,6,4,1,4,11,4,0,2
1481309345119285,2,2,7,0,-9,29,20,1
1481309345131790,3,4,7,-6,-2,-1,11,5
1481309345131790,-1,-5,-1,11,6,9,3,2
1481309345140288,-1,-2,16,-18,-8,14,4,2
1481309345140288,-1,-3,-14,15,6,-2,13,1
1481309345154402,2,2,9,-8,5,1,-6,0
1481309345154402,-1,-3,3,15,-4,3,-13,-4
1481309345161299,3,3,-10,14,-7,-15,-1,1
1481309345161299,0,4,-6,-14,-11,-17,7,0
1481309345177335,-1,5,2,8,3,-9,-10,2
1481309345177335,-2,-5,0,-1,4,1,-1,-1
1481309345179298,9,16,27,-5,15,-7,9,7
1481309345179298,-15,-24,-36,1,-36,-14,-3,-11
1481309345191300,10,6,4,19,29,-2,-7,3
1481309345191300,19,23,44,-80,-52,7,27,9
1481309345200302,8,3,-4,65,-29,20,6,6
1481309345200302,-5,2,13,-7,18,-4,1,2
1481309345214299,-1,-10,-16,-15,-29,13,4,-1
1481309345214299,4,2,5,22,17,6,-5,-2
1481309345221385,-1,5,13,-37,-16,-3,-5,-1
1481309345221385,-4,-1,-10,-56,10,13,1,-2
1481309345237813,-2,-1,2,85,16,5,-1,-3
1481309345237813,-11,-15,-24,-9,20,-23,1,-4
1481309345239311,-1,-4,2,0,11,-11,-4,0
1481309345239311,5,2,0,29,-18,-4,4,4
1481309345251320,-3,1,-2,-26,15,-4,-3,-4
1481309345251320,-10,-14,-21,-10,-6,3,-5,-5
1481309345260318,-5,-4,-13,5,9,-1,0,2
1481309345260318,2,7,8,-1,3,-13,3,0
1481309345274323,-4,-4,1,-71,-17,-1,-2,-2
1481309345274323,4,5,6,85,40,15,-1,2
1481309345281322,-3,-6,-20,-26,-32,-12,-4,-5
1481309345281322,1,9,3,21,23,-6,2,0
1481309345297321,-4,-7,-5,-69,-15,10,8,-5
1481309345297321,-5,-5,-12,17,-4,-15,5,-4
1481309345299320,-6,-3,-4,-3,-28,8,-6,-2
1481309345299320,5,2,1,-11,4,1,0,0
1481309345311341,-3,-1,-3,27,11,-5,-22,-2
1481309345311341,-2,-4,-5,-34,-21,3,3,-4
1481309345320325,3,1,-3,-10,-1,-14,-2,-3
1481309345320325,-2,0,8,38,18,28,3,1
1481309345334840,-1,-1,-5,7,-11,2,-16,0
1481309345334840,-1,-2,1,12,14,14,-10,-3
1481309345341333,-4,-6,-7,-10,3,-19,-10,-4
1481309345341333,0,-5,10,-17,6,14,-11,3
1481309345357920,-1,4,3,-6,3,10,26,-3
1481309345357920,-5,-6,-34,-18,-20,-10,-6,-1
1481309345358920,0,2,29,15,26,21,-3,-3
1481309345358920,0,-1,-34,-8,-26,-36,-21,-3
1481309345372925,-9,-7,20,15,1,14,-1,-1
1481309345372925,3,4,2,6,-3,-11,1,4
1481309345379926,1,-2,-10,-2,8,-12,-12,-1
1481309345379926,8,5,11,-17,-19,6,9,6
1481309345394930,-2,2,3,6,0,1,21,0
1481309345394930,-2,0,2,-11,-11,2,-17,-4
1481309345400994,-3,-5,13,21,32,21,21,4
1481309345400994,-5,-7,-3,-4,-12,-7,2,-3
1481309345417938,3,2,-9,9,-5,-15,-1,1
1481309345417938,-5,0,20,0,5,19,-4,0
1481309345418924,2,3,-15,-23,-3,-11,4,1
1481309345418924,-2,-5,3,35,13,11,-2,-5
1481309345431507,2,-2,0,0,-16,-6,-1,4
1481309345431507,-1,1,2,6,10,0,-18,-6
1481309345440508,0,-3,-2,-7,-5,6,57,4
1481309345440508,6,10,27,-28,-5,19,18,3
1481309345454555,-13,-20,-45,41,33,-17,-15,-12
1481309345454555,8,5,4,-30,-28,0,12,4
1481309345461587,7,3,10,8,-13,8,-6,6
1481309345461587,-3,15,27,-5,-5,16,-8,-9
1481309345477530,-13,-24,-31,-62,-34,9,9,4
1481309345477530,12,11,11,81,36,2,5,6
1481309345479514,9,11,21,-13,-34,-16,-2,-2
1481309345479514,-21,-19,-35,-16,-5,-4,20,-1
1481309345491517,6,7,17,-12,1,2,-20,-1
1481309345491517,-6,-5,-1,-9,8,-11,-2,-5
1481309345500518,-2,0,-21,-2,-2,6,-11,-3
1481309345500518,5,3,9,14,-28,10,1,2
1481309345514587,6,7,5,1,-15,-25,12,5
1481309345514587,-8,-9,-11,-38,1,-8,1,-3
1481309345521561,-4,-2,-3,9,6,2,-18,-6
1481309345521561,1,-1,-6,-6,29,-11,-4,2
1481309345538031,0,-2,-4,17,19,-4,-7,-1
1481309345538031,0,3,3,-9,-20,-18,-4,1
1481309345539529,-7,-6,-1,6,17,7,-3,1
1481309345539529,-4,-7,-12,2,3,-27,-37,-6
1481309345551633,0,3,4,-50,-8,-9,15,-1
1481309345551633,0,-2,6,39,22,21,2,2
1481309345560539,2,0,-1,23,-1,1,-5,0
1481309345560539,3,0,-5,-31,26,-25,-3,-3
1481309345574538,2,3,6,-1,-30,7,-41,-4
1481309345574538,-8,-13,-15,-59,-7,5,66,2
1481309345581542,-2,3,2,51,24,0,-19,-3
1481309345581542,4,-1,-6,13,-27,3,10,3
1481309345597540,1,4,10,27,8,9,-18,-1
1481309345597540,2,2,5,-24,-3,7,-55,1
1481309345599539,2,-4,-4,-17,2,-4,86,2
1481309345599539,-1,-3,-15,-6,-9,-4,7,2
1481309345611612,4,8,10,44,28,15,0,3
1481309345611612,-6,-4,-1,3,-16,-8,-16,-1
1481309345620543,-2,-5,-15,-16,11,-2,-35,-9
1481309345620543,-3,-7,4,-9,-21,11,12,1
1481309345634651,2,2,-2,6,8,-1,28,-4
1481309345634651,2,6,9,19,2,-8,-11,0
1481309345641650,-10,-10,-19,-20,-19,-8,-45,-6
1481309345641650,2,-1,-11,-12,22,15,13,-5
1481309345657658,-2,-2,22,2,4,43,19,6
1481309345657658,-2,1,-8,-3,-6,-15,-7,-4
1481309345658661,-2,-4,20,-9,-20,25,9,8
1481309345658661,2,3,-11,25,8,-16,-20,-5
1481309345671664,-1,3,-8,2,-2,-22,-2,-3
1481309345671664,-4,-3,15,4,-6,16,4,0
1481309345680660,1,0,-6,-1,-3,-11,-5,-2
1481309345680660,1,3,2,-5,4,-5,-1,2
1481309345702731,2,3,3,-3,-7,9,-1,3
1481309345702731,-2,-1,-3,-11,-5,13,6,-3
1481309345703662,1,1,-10,2,17,-5,-15,1
1481309345703662,2,0,1,18,7,12,1,2
1481309345716711,-3,-1,-1,-5,-4,-5,-6,-4
1481309345716711,-2,-8,-13,-6,-5,3,1,-3
1481309345723746,-2,-4,-1,-16,1,1,-2,-1
1481309345723746,-1,-1,3,-7,-6,-2,-17,1
1481309345731753,1,2,-2,23,16,-5,29,1
1481309345731753,-2,-7,-15,-6,-9,-2,4,-2
1481309345740256,-5,-1,-1,-3,6,-4,-11,1
1481309345740256,-1,-2,-2,-1,-7,-6,3,0
1481309345754832,1,1,2,-10,1,-7,-16,-3
1481309345754832,0,0,1,16,-14,-5,-25,0
1481309345760764,0,-3,-2,11,28,6,40,0
1481309345760764,-5,-4,-4,-11,-14,4,-14,-1
1481309345776855,-2,0,0,-14,-5,-1,-5,-3
1481309345776855,3,2,0,30,20,4,-9,0
1481309345783779,5,5,12,-18,-15,1,31,4
1481309345783779,-6,-6,1,17,12,-3,-3,-4
1481309345799847,0,-3,-4,-7,-11,-7,-13,-2
1481309345799847,0,2,1,-9,10,0,4,2
1481309345801766,2,1,-2,11,-6,1,-10,0
1481309345801766,-1,0,-4,-12,-5,3,6,0
1481309345814839,-3,-3,-7,-10,-21,-5,0,1
1481309345814839,-1,3,1,9,7,-4,-10,-3
1481309345821765,-2,-6,-13,-21,-14,-13,-9,-2
1481309345821765,-3,-1,11,15,6,1,2,-2
1481309345837346,1,0,0,1,-3,-8,-6,-1
1481309345837346,2,-1,2,-1,-1,2,7,-3
1481309345843858,-4,1,1,-13,-21,16,0,-3
1481309345843858,-2,-1,-3,-1,-1,-2,-4,-2
1481309345859855,2,2,-1,-4,-11,-6,-2,0
1481309345859855,-1,-4,-2,9,13,-1,14,0
1481309345861856,-3,0,-3,-6,-3,-10,-12,-2
1481309345861856,4,0,0,11,2,0,-4,-1
1481309345873853,-1,-1,-2,5,3,6,2,1
1481309345873853,2,-3,-10,-19,-12,-8,3,0
1481309345882858,-3,-1,4,2,-4,4,-13,-3
1481309345882858,0,-1,0,1,-11,1,-18,0
1481309345896958,-2,-5,-2,11,24,7,1,-3
1481309345896958,1,4,6,-16,-14,-1,10,4
1481309345903926,0,-1,-4,-2,-1,-2,-11,-3
1481309345903926,0,3,2,24,12,6,8,0
1481309345919877,1,0,1,0,-6,-5,8,0
1481309345919877,-10,-6,-4,-7,-4,-1,-10,-1
1481309345921856,0,1,-1,-3,-2,0,10,0
1481309345921856,0,0,-3,1,5,-1,2,-1
1481309345933940,3,1,-1,0,-2,1,-18,-1
1481309345933940,2,0,1,2,-10,0,15,0
1481309345942939,-5,-2,-2,3,31,4,-3,1
1481309345942939,4,0,2,10,6,6,6,-1
1481309345957032,-1,-4,-3,-28,-23,-5,2,0
1481309345957032,-1,0,2,20,14,5,-3,1
1481309345963954,-3,-2,0,0,-14,-8,-14,-4
1481309345963954,0,2,-1,-6,1,-4,-4,-1
1481309345980949,-5,-3,-8,-11,8,-4,-32,-3
1481309345980949,1,-2,-7,6,-7,4,19,-1
1481309345981949,2,-2,0,15,14,-16,0,3
1481309345981949,0,-3,-3,-9,0,-10,-6,-1
1481309345993953,-4,0,-2,3,0,-5,9,-2
1481309345993953,-6,-8,-6,-12,12,-2,-3,-2
1481309346002950,0,-1,-3,-4,-18,-2,-7,-1
1481309346002950,-4,0,-4,-8,-15,0,5,0
1481309346016951,4,-1,2,5,7,7,5,2
1481309346016951,1,0,1,6,6,-2,4,0
1481309346023951,1,1,-1,-4,-1,2,-6,-3
1481309346023951,4,5,10,-3,4,12,9,5
1481309346040461,-4,-1,-4,3,3,1,3,0
1481309346040461,0,-4,0,-6,-3,6,-10,-3
1481309346041962,-1,-5,-5,-3,-6,0,2,-3
1481309346041962,2,-1,-2,17,12,-8,1,-1
1481309346054041,-2,-1,-3,-6,-4,6,10,2
1481309346054041,-1,3,2,8,0,3,-12,0
1481309346062970,0,-4,-10,-18,-14,-8,18,2
1481309346062970,0,1,-2,3,-3,1,0,-2
1481309346077041,-1,-1,2,6,19,-4,-1,-1
1481309346077041,1,0,-3,-5,-5,-2,-10,-3
1481309346084043,4,2,3,0,-5,1,-1,1
1481309346084043,-6,-3,-4,-7,-8,-7,-1,0
1481309346100054,-2,-3,-2,2,-6,9,15,-3
1481309346100054,0,0,-3,-6,0,1,12,-2
1481309346101973,0,1,2,4,8,6,-15,1
1481309346101973,-1,-4,0,-9,-9,3,5,-2
1481309346114044,0,-2,0,2,7,-2,-3,1
1481309346114044,-2,-2,-5,-7,-24,-7,-4,-2
1481309346122974,0,1,4,7,11,19,-9,-5
1481309346122974,-3,-2,-5,-14,-9,6,10,1
1481309346137506,-1,-1,2,7,-1,-3,-7,-3
1481309346137506,-3,-4,-5,-11,-5,-4,-2,-3
1481309346143508,-2,0,4,-5,11,-2,-13,0
1481309346143508,1,-1,-1,9,4,-7,-7,-4
1481309346159878,-1,-3,-1,-11,-16,9,3,2
1481309346159878,-2,1,2,-3,-1,1,-1,-2
1481309346161835,0,-3,-2,-3,-4,2,-9,-1
1481309346161835,-3,-3,2,1,17,2,32,1
1481309346173836,0,-1,1,1,0,4,-2,-2
1481309346173836,3,-1,-1,6,-6,-1,-1,3
1481309346182836,-2,-1,-3,1,4,-7,3,0
1481309346182836,-3,-5,-10,-9,-7,-13,-12,-5
1481309346196844,-1,2,0,4,2,22,-13,-3
1481309346196844,2,2,2,4,0,-11,1,0
1481309346203910,-3,1,0,-10,-22,-1,4,-3
1481309346203910,-1,0,-5,7,5,5,-7,-1
1481309346219910,-2,-2,1,-3,-3,-4,1,-2
1481309346219910,-1,-2,-3,-6,1,0,-4,-2
1481309346221840,1,1,-2,6,6,-3,5,0
1481309346221840,0,2,2,3,-4,-2,-11,-1
1481309346233925,-5,-4,5,2,0,-5,2,1
1481309346233925,0,0,0,-5,-4,4,-2,0
1481309346242923,-3,-2,-9,4,6,-7,-1,-1
1481309346242923,3,3,-1,-13,-2,-1,-3,-1
1481309346256916,1,3,-3,-2,-5,-12,-1,2
1481309346256916,-3,0,-1,-1,18,4,1,-3
1481309346263832,0,-2,4,13,7,10,4,1
1481309346263832,-3,-3,0,-12,-7,-4,-9,-3
1481309346279903,2,3,-3,14,14,-4,2,0
1481309346279903,10,3,1,-2,-6,-8,-21,1
1481309346281832,-25,-13,-1,-7,-3,2,28,-5
1481309346281832,2,-2,-2,0,1,0,9,4
1481309346293836,-3,-4,-2,0,-10,-10,-6,-3
1481309346293836,2,3,-1,3,14,-4,-8,0
1481309346302837,5,3,-3,6,7,-1,1,2
1481309346302837,-6,-3,0,-4,-16,-1,-4,-3
1481309346316895,5,3,-2,-3,-7,-10,-3,1
1481309346316895,-8,-1,0,-1,0,2,10,-3
1481309346323838,0,-1,-2,-6,-11,-4,-10,-3
1481309346323838,-4,-3,-4,4,5,3,1,2
1481309346340421,1,-1,-3,-8,-5,1,-5,0
1481309346340421,-1,-2,2,-13,-9,10,5,2
1481309346341918,3,-1,2,21,20,1,-2,1
1481309346341918,2,1,-2,-4,5,-2,-7,0
1481309346353929,-3,-2,1,4,-6,4,3,-1
1481309346353929,-4,-2,-5,-6,-6,-1,3,-1
1481309346362927,4,3,-1,-3,-2,-3,-5,0
1481309346362927,6,-1,-1,2,3,-3,0,-1
1481309346377000,-14,-4,-4,0,-1,-1,-5,-3
1481309346377000,0,-1,1,-6,3,-1,8,0
1481309346383932,4,2,0,5,5,-2,-4,0
1481309346383932,-1,0,0,2,-1,3,-3,-2
1481309346400001,1,4,-1,-3,0,0,5,0
1481309346400001,-10,-8,-6,0,-6,-1,-1,-1
1481309346401930,-1,-5,-3,-6,5,-6,-3,-2
1481309346401930,-1,-3,0,-4,-16,-3,-1,0
1481309346413931,2,1,-3,5,5,-5,-3,0
1481309346413931,0,1,4,6,14,4,5,2
1481309346422931,-1,-1,0,-7,-22,-1,-3,0
1481309346422931,-5,-3,-4,18,14,1,0,3
1481309346437046,4,0,0,-12,-6,-4,-1,0
1481309346437046,1,1,1,8,14,1,0,0
1481309346443550,0,-1,-1,-3,-9,11,-3,-1
1481309346443550,3,1,4,-6,-4,-1,0,-2
1481309346460636,-6,-6,-9,1,0,0,0,-2
1481309346460636,2,3,2,3,-4,3,-2,-1
1481309346461633,-1,-3,1,-5,-1,-5,2,1
1481309346461633,-2,0,-2,8,9,-3,0,-1
1481309346473638,2,-1,4,-6,-5,7,1,-2
1481309346473638,-3,-2,-3,4,6,2,3,2
1481309346490635,0,1,-1,-4,1,-2,-1,-1
1481309346490635,-3,3,0,0,-4,-11,-4,-3
1481309346496741,-2,0,1,0,-1,0,0,1
1481309346496741,0,0,-1,-5,-1,1,-3,0
1481309346503707,-1,0,4,2,1,-5,-1,-1
1481309346503707,0,-1,-2,-2,-1,2,0,-2
1481309346520639,0,-1,0,4,-5,-3,-3,-1
1481309346520639,-3,-6,7,-2,-10,-3,0,-2
1481309346521637,-5,-7,-24,-9,3,-2,-2,-3
1481309346521637,0,-1,6,3,-9,0,-4,-1
1481309346534206,3,0,-2,0,7,-3,2,-1
1481309346534206,2,3,1,1,-10,-3,0,0
1481309346543211,-1,-2,1,1,8,1,0,-1
1481309346543211,-2,1,-2,-2,-3,-2,-3,-1
1481309346557115,-1,3,1,3,6,4,2,1
1481309346557115,1,0,-4,-12,-11,-2,-2,-1
1481309346564118,-5,-2,2,13,8,2,0,-1
1481309346564118,-1,-5,-7,-2,-16,-3,-1,1
1481309346580188,0,1,17,-1,2,1,1,-2
1481309346580188,-2,-2,-11,-1,12,0,-3,-2
1481309346582117,2,0,-4,-10,-10,-4,11,3
1481309346582117,-1,-4,4,-3,3,3,-2,0
1481309346603125,-4,-2,-6,4,-10,-1,-4,-4
1481309346603125,0,2,2,-1,-4,-4,-3,-2
1481309346604117,4,6,6,9,1,-1,-7,-1
1481309346604117,-2,1,0,-3,9,-1,2,-1
1481309346617142,2,-2,-3,-5,-5,-2,0,0
1481309346617142,-2,-5,-17,0,-2,-1,0,-2
1481309346624119,-2,2,-2,-1,-5,-1,-2,-3
1481309346624119,1,0,3,-12,-18,0,4,0
1481309346639703,0,-2,-7,18,12,-3,-3,1
1481309346639703,0,0,-1,-4,-5,3,1,0
1481309346645962,-3,-4,-4,11,4,-1,-2,1
1481309346645962,-3,3,17,1,11,2,-1,-1
1481309346653984,1,2,0,-10,1,-1,1,-2
1481309346653984,-5,-7,6,-2,-2,-1,0,1
1481309346662893,-4,-15,-76,-23,-2,-3,-9,-9
1481309346662893,2,2,11,4,9,-4,-3,-1
1481309346676920,0,0,0,1,17,-4,2,1
1481309346676920,1,5,11,18,9,-3,0,1
1481309346683965,2,4,17,-7,-7,6,3,2
1481309346683965,-3,-2,-7,4,4,5,1,-2
1481309346699899,-2,-4,-12,-7,-8,-7,-6,-2
1481309346699899,1,-3,-7,2,3,-1,0,0
1481309346705902,2,3,28,-2,-4,-1,-1,0
1481309346705902,-5,-6,-36,35,15,1,-2,-4
1481309346722902,1,1,2,-34,-46,3,0,3
1481309346722902,-1,-1,0,7,14,-2,-3,-3
1481309346723896,0,-2,9,-14,-20,-2,-2,-1
1481309346723896,5,4,10,-14,4,-2,-2,0
1481309346737420,-4,-3,-9,6,3,5,-2,0
1481309346737420,-5,-4,6,17,9,-3,-3,-2
1481309346743921,-1,0,-3,-24,10,26,7,-2
1481309346743921,3,-1,5,11,-16,-16,-4,1
1481309346759955,-2,0,-1,7,8,2,-3,-1
1481309346759955,2,3,-7,-16,-23,-25,-9,1
1481309346766051,2,4,20,22,21,-3,-1,1
1481309346766051,0,1,-1,-21,-7,-1,-2,0
1481309346782962,1,0,8,32,39,3,0,-2
1481309346782962,-4,-7,-18,-22,-43,12,2,0
1481309346783954,0,2,5,-11,-4,-8,-7,-1
1481309346783954,0,-3,-16,-11,-7,10,5,-1
1481309346795958,-9,-5,1,-1,0,-6,-4,-1
1481309346795958,3,2,1,-1,6,3,3,-2
1481309346804962,2,5,11,6,-4,-1,2,1
1481309346804962,-7,-8,-25,-4,-3,16,2,0
1481309346819959,0,1,11,-8,7,22,8,-3
1481309346819959,0,-1,-3,5,-6,-11,0,-1
1481309346826042,-5,-5,-26,4,-6,-4,-6,2
1481309346826042,6,3,21,5,6,-11,-4,0
1481309346842970,0,-5,-6,0,-23,12,0,-1
1481309346842970,-3,3,2,-6,19,5,-2,-1
1481309346843966,3,2,4,8,9,-9,-1,0
1481309346843966,-5,-1,-5,2,-3,-6,1,1
1481309346856236,0,-4,-8,-2,-5,-7,0,-1
1481309346856236,0,-2,5,4,4,8,0,1
1481309346865234,-5,-2,5,-5,-2,-4,-2,-1
1481309346865234,-1,-2,-8,-6,-4,0,-3,-3
1481309346879302,2,4,-1,-8,0,-5,0,-2
1481309346879302,4,6,4,2,8,12,1,-2
1481309346886302,-5,-4,-2,-6,-4,-8,-3,-2
1481309346886302,-4,-4,-1,-2,-5,1,-6,-3
1481309346902303,-3,-1,4,13,3,-6,-2,0
1481309346902303,1,-1,-3,-3,-9,-3,-3,1
1481309346904233,0,-3,-1,2,-6,1,1,0
1481309346904233,-2,1,0,-8,4,6,5,-1
1481309346916304,1,2,-2,5,-13,-7,-5,-3
1481309346916304,-5,-1,5,-3,8,5,1,-2
1481309346925235,0,-3,-11,1,-4,1,1,0
1481309346925235,-3,0,3,12,2,-8,-4,-4
1481309346939757,-1,-5,-5,-22,-5,6,11,5
1481309346939757,-2,-4,-4,12,1,-3,-5,-3
1481309346946585,-2,0,2,2,-3,-2,-1,-2
1481309346946585,0,-2,3,0,4,-1,-3,0
1481309346962587,3,-1,3,7,-2,-4,-2,-3
1481309346962587,-1,-4,-14,-14,-7,-4,1,1
1481309346964520,-3,2,7,8,7,2,0,0
1481309346964520,1,3,-8,-7,3,-2,2,2
1481309346976520,-4,0,3,1,4,0,0,-2
1481309346976520,1,2,4,2,3,4,2,2
1481309346985520,1,-3,-5,-2,0,-4,-2,-2
1481309346985520,-11,-5,-2,-8,-5,-2,-1,-4
1481309347007524,2,1,-3,3,6,1,0,-1
1481309347007524,-2,-6,-3,-6,-10,-8,-3,-2
1481309347009518,-2,0,0,-8,-6,2,-2,0
1481309347009518,0,0,12,-7,4,4,2,1
1481309347022526,-2,-3,-4,14,9,-1,-8,-1
1481309347022526,0,4,3,2,1,-4,-7,-1
1481309347024564,1,-2,-7,-7,-2,6,22,3
1481309347024564,2,-3,-5,-12,-7,-6,-5,-2
1481309347036532,2,-1,-1,-5,1,5,3,4
1481309347036532,-2,-4,-6,-3,-2,0,-2,-1
1481309347045585,-3,1,2,4,0,-4,-8,-4
1481309347045585,-1,0,0,5,2,2,3,2
1481309347059588,-2,-2,-6,-3,-2,-6,0,-3
1481309347059588,-1,1,1,-5,2,5,4,0
1481309347066678,1,-1,0,4,-1,0,-2,-2
1481309347066678,-3,0,-2,4,-3,1,1,0
1481309347082659,-1,0,0,1,-2,-1,-7,-2
1481309347082659,0,6,19,-13,15,6,1,2
1481309347084588,2,-6,-14,24,-12,-3,-1,1
1481309347084588,-10,2,1,6,11,0,-4,-3
1481309347096663,-4,1,-3,-15,-11,0,-4,-3
1481309347096663,8,3,24,10,28,0,13,14
1481309347105593,-6,-10,-25,-53,-66,-9,-18,-14
1481309347105593,6,8,11,19,68,14,13,9
1481309347119615,0,-7,-15,17,-8,-26,-8,-3
1481309347119615,-12,-8,-18,1,27,24,-11,-9
1481309347126601,-15,-18,-32,-47,-82,-16,7,-1
1481309347126601,-1,-1,0,23,-24,7,-8,-2
1481309347143124,5,9,14,-21,45,9,-20,5
1481309347143124,-8,-24,-38,21,9,-11,5,-7
1481309347144622,26,20,40,26,9,-9,-1,11
1481309347144622,10,17,30,-12,-27,36,11,3
1481309347156134,16,13,14,-1,-14,-23,-13,1
1481309347156134,17,18,21,8,-54,-9,9,8
1481309347165131,8,0,-5,-1,57,24,-8,-3
1481309347165131,-19,-22,-20,1,0,-20,-36,-10
1481309347179201,-4,-2,2,-5,-10,-15,45,-5
1481309347179201,-4,7,7,8,-18,30,8,2
1481309347186210,-19,-14,-3,6,0,-10,-12,-11
1481309347186210,4,1,-7,-17,12,-7,-2,1
1481309347210135,-12,1,-3,-1,-7,15,-6,-2
1481309347210135,-8,-18,-27,-14,-45,5,-13,-11
1481309347212134,-17,-7,-10,14,61,-22,7,1
1481309347212134,-19,-33,-21,58,-58,0,1,-7
1481309347216203,3,12,10,-6,26,16,-7,7
1481309347216203,-1,7,14,5,33,-6,5,-2
1481309347225134,15,19,18,1,16,12,-8,5
1481309347225134,5,5,-2,-13,5,19,8,-3
1481309347239696,-9,-10,-12,-22,-19,10,5,-2
1481309347239696,-5,-6,-6,-5,26,-6,-10,-2
1481309347246734,-3,-4,-3,1,9,27,-29,-1
1481309347246734,-3,1,4,-14,1,-43,39,-4
1481309347261814,4,-2,-2,8,2,-22,12,0
1481309347261814,1,2,-2,-7,13,-5,-7,-2
1481309347262732,-2,5,3,17,4,-15,-7,-5
1481309347262732,2,-3,-5,-15,-12,-6,-8,-3
1481309347284764,-2,-6,5,-9,6,12,-1,3
1481309347284764,4,10,1,7,-31,-44,-7,-1
1481309347284764,-3,-1,6,-10,10,42,19,0
1481309347284764,-1,-2,-16,-8,2,15,-14,-1
1481309347308734,1,1,-9,15,0,7,-4,-6
1481309347308734,2,2,13,7,1,3,5,5
1481309347308734,-10,-7,-2,-5,0,-12,3,-5
1481309347308734,9,6,0,-11,6,-7,1,3
1481309347321740,6,-4,-25,5,-12,-34,-8,-1
1481309347321740,-5,-5,7,-13,5,28,7,1
1481309347322737,6,8,-11,16,0,-31,-2,-3
1481309347322737,1,2,10,-4,3,16,2,6
1481309347344769,-2,-2,-1,12,-10,-20,0,1
1481309347344769,-8,-12,-8,-8,2,5,-9,-9
1481309347344769,5,2,-5,27,6,2,11,5
1481309347344769,-14,-14,-9,-42,5,20,-3,-8
1481309347360137,-7,-4,7,3,-1,11,-5,-4
1481309347360137,13,10,-4,-13,-3,-3,8,6
1481309347366137,-4,1,32,11,5,8,3,-1
1481309347366137,0,-5,-8,-2,-1,-36,-11,-2
1481309347382218,-2,6,9,-2,2,-7,-2,0
1481309347382218,-9,-12,-14,3,-6,-9,-6,-6
1481309347382218,3,4,-11,-12,-13,-11,4,4
1481309347382218,0,0,0,4,0,13,-2,1
1481309347404138,-7,-8,-6,-6,-3,6,-3,-7
1481309347404138,0,-1,-2,6,-9,-9,1,0
1481309347405139,4,7,-1,-21,-2,-1,1,4
1481309347405139,4,6,7,16,16,-13,-5,-3
1481309347420140,-6,-7,1,-2,-19,21,0,-1
1481309347420140,1,0,7,5,12,2,0,0
1481309347426142,-5,-8,-2,6,-7,5,-10,-2
1481309347426142,5,7,13,-6,6,10,-2,-3
1481309347449721,-2,-2,-13,-13,1,-11,17,3
1481309347449721,-1,0,-5,-5,-15,-3,-9,-1
1481309347449721,-9,-7,-15,-10,-31,13,8,-5
1481309347449721,15,13,46,15,31,-17,12,15
1481309347464722,4,-4,-35,2,0,-15,-2,-2
1481309347464722,5,9,10,7,17,-19,-2,-1
1481309347465660,4,1,27,-29,-17,-12,10,13
1481309347465660,7,-4,-44,5,-7,0,-10,-9
1481309347480664,-7,7,22,-7,14,21,-3,-3
1481309347480664,-16,-19,-47,9,9,25,10,0
1481309347486681,3,6,20,12,5,10,-7,-8
1481309347486681,-1,-2,-2,-5,-14,-3,8,6
1481309347501723,1,-2,2,-8,10,-6,5,3
1481309347501723,2,4,-13,-16,-22,-32,-25,-14
1481309347502662,-3,-4,-18,3,15,-12,0,2
1481309347502662,2,4,3,13,-8,-13,6,9
1481309347524665,2,2,4,-7,-16,-6,-12,-2
1481309347524665,8,7,24,4,9,0,8,7
1481309347525662,-6,-10,-19,1,-15,-12,6,1
1481309347525662,2,4,3,-16,24,32,-7,-4
1481309347540274,3,1,19,18,21,-28,8,7
1481309347540274,-2,-4,-8,-16,-73,-5,-4,0
1481309347546411,5,7,12,10,34,20,-23,-2
1481309347546411,-3,-4,-7,-15,-41,1,37,1
1481309347562351,-1,-4,-8,19,51,14,-12,-10
1481309347562351,-7,-7,-6,-17,-3,3,4,1
1481309347562351,8,2,4,4,-10,-2,-5,-1
1481309347562351,-8,-7,-6,-6,23,-3,-12,-8
1481309347584391,-18,-24,-28,-50,-54,15,-5,-7
1481309347584391,10,8,10,47,41,-4,7,4
1481309347585322,1,7,8,8,5,-5,11,0
1481309347585322,0,2,-5,-15,-5,-12,-15,-5
1481309347600325,3,-2,-3,-6,-19,1,4,2
1481309347600325,4,7,17,-2,3,7,-7,-1
1481309347606407,-8,-11,-17,-17,20,-16,-4,-7
1481309347606407,4,6,12,44,-11,13,-29,1
1481309347621328,-1,0,5,8,20,8,48,3
1481309347621328,-1,0,1,0,6,10,-4,-1
1481309347628394,-1,-2,0,-2,-6,1,23,3
1481309347628394,-3,0,-10,6,-18,-28,-32,-7
1481309347644839,0,-1,6,-8,-12,5,-9,2
1481309347644839,-5,0,-1,-1,4,-19,-12,-5
1481309347645339,-1,-2,9,13,-18,-12,4,3
1481309347645339,-12,-10,4,0,20,20,8,-8
1481309347660589,-6,-3,-11,-17,-2,27,-11,-5
1481309347660589,-6,-7,-15,-3,3,-19,5,-2
1481309347666636,-3,0,7,17,0,1,-15,-5
1481309347666636,0,4,1,-10,3,-5,0,1
1481309347681652,14,16,8,18,-3,-49,7,5
1481309347681652,-7,-14,20,-20,1,61,1,2
1481309347688595,6,6,-8,-9,8,-6,28,2
1481309347688595,4,1,-15,8,-3,-25,2,7
