timestamp,x,y,z
1481309332361039,0.3125,0.0625,-0.5625
1481309332384042,0.0625,-0.1875,-0.8125
1481309332399060,0,-0.5,-1.1875
1481309332421078,0.4375,-0.625,-0.9375
1481309332435581,1.625,-0.75,-0.75
1481309332460583,0.875,-0.8125,-0.375
1481309332481086,-0.8125,-1.0625,0
1481309332495094,-1.625,-1.3125,0.375
1481309332547097,-0.4375,-1.3125,0.625
1481309332547097,-0.0625,-1.375,-0.125
1481309332561098,-0.125,-1.0625,-0.3125
1481309332577101,0.8125,-0.9375,-0.5
1481309332600116,0.5,-0.8125,-0.6875
1481309332621118,-0.875,-0.75,-0.5
1481309332637119,-0.5625,-0.9375,-0.3125
1481309332660121,-0.3125,-0.875,-0.25
1481309332681129,0.5625,-0.75,-0.1875
1481309332697135,0.6875,-0.75,-0.1875
1481309332720137,0.3125,-0.375,-0.0625
1481309332741139,-0.1875,0.1875,-0.5625
1481309332757141,-1.5625,0.8125,-1.0625
1481309332780149,-0.875,0.6875,-1.0625
1481309332801159,1.4375,0.6875,-1.125
1481309332817161,2.6875,-0.1875,-0.4375
1481309332840164,2.375,-0.9375,0.25
1481309332861164,3.625,-0.9375,0.4375
1481309332877163,5.1875,0.6875,0.1875
1481309332899766,2.75,1.625,-0.9375
1481309332920806,-0.8125,1.9375,-1.9375
1481309332938736,-1.0625,2.25,-2.125
1481309332959750,1,2.1875,-1.5
1481309332981270,0.5625,1.375,-1.625
1481309332997859,-1,0.4375,-1.1875
1481309333019863,-0.25,-0.0625,-1.1875
1481309333042863,0.6875,-0.6875,-1.125
1481309333057863,1.9375,-1.3125,-0.4375
1481309333080444,4.375,-1.8125,0.625
1481309333102339,4.0625,-1.625,1.25
1481309333117240,3.5,-0.9375,1.1875
1481309333140238,-0.125,-0.4375,0.125
1481309333162241,-2.9375,0.0625,-0.3125
1481309333177240,0.5625,0,-0.6875
1481309333199762,2.9375,-0.1875,0.375
1481309333221845,1.4375,-0.75,0.5
1481309333236758,-2.8125,-1.1875,2.0625
1481309333259765,-3.625,-2.0625,2.625
1481309333281781,-2.1875,-2.6875,3.5625
1481309333297411,0.1875,-3.0625,4.6875
1481309333319482,-3.5,-2.0625,5.625
1481309333341413,-10.0625,-4.3125,3.625
1481309333357414,-8.3125,-7.6875,3.1875
1481309333379517,-0.6875,-8.625,2.125
1481309333401727,5.875,-9.5,2.4375
1481309333416729,0.375,-12.3125,3.375
1481309333439730,-1.8125,-17.1875,3.75
1481309333461732,-2,-22.125,2.125
1481309333475735,2.25,-27.125,1.0625
1481309333499265,10.1875,-32.5625,1.8125
1481309333522266,16.6875,-36.375,3.0625
1481309333536268,11.875,-40.9375,5.1875
1481309333558268,6.625,-45.4375,8.1875
1481309333582293,4,-51,13.125
1481309333596285,9.25,-55.25,17.625
1481309333618286,10.5625,-58.375,21
1481309333642288,6.75,-63.4375,25.9375
1481309333656289,2.75,-70.6875,30.8125
1481309333678290,7.625,-76.1875,35.25
1481309333702305,20.5625,-80.6875,41.1875
1481309333716305,29.75,-83.9375,47.875
1481309333738306,27.6875,-89,52.3125
1481309333762307,19.75,-93.375,57.9375
1481309333776308,20.375,-97.1875,62.3125
1481309333798817,29.125,-101.75,66.5625
1481309333821820,36.5625,-104.813,71.5
1481309333836322,32.6875,-104.5,75.375
1481309333858853,25.125,-104.313,77.8125
1481309333882328,18.0625,-105.438,79.4375
1481309333896330,13.1875,-107.625,81.6875
1481309333918833,14.375,-109.125,86.125
1481309333942335,16.375,-109.688,88.625
1481309333956337,12.875,-108.875,88.8125
1481309333979341,6.1875,-109.125,90.75
1481309334002343,-2.4375,-111.438,93
1481309334016345,-2.625,-113.688,95.9375
1481309334038849,0.0625,-114.313,101
1481309334061850,-1.0625,-114.25,100.125
1481309334084854,0.0625,-115.563,96.25
1481309334098855,0.0625,-118.375,97.125
1481309334121358,-0.1875,-120.5,101.25
1481309334136363,-0.375,-121.875,102.125
1481309334158863,2,-122.375,101.313
1481309334181367,9.25,-120.375,101.438
1481309334204369,7.4375,-117.125,102.688
1481309334218870,3.375,-114,100.563
1481309334241373,0.4375,-111.125,96.75
1481309334264376,1,-105.625,96.625
1481309334278879,3.75,-96.625,97.375
1481309334301381,3.0625,-89.375,94.25
1481309334324884,-1.4375,-84.3125,92.625
1481309334338886,-1.4375,-79.9375,93
1481309334362888,1,-75.9375,94.3125
1481309334384392,-6.5,-74.5,98.125
1481309334407395,-0.875,-66.625,97.25
1481309334421396,1.6875,-58.0625,99.8125
1481309334444900,2.9375,-46.875,102.688
1481309334458901,-8.5,-34.5,104.438
1481309334481405,-20,-24,105.188
1481309334504407,-20.625,-10.25,103.188
1481309334518908,-3.8125,8.75,104.063
1481309334540917,15.375,31.875,112.875
1481309334563919,33.5625,59,122.375
1481309334578920,39.6875,83.9375,126.75
1481309334600921,34.5625,98.6875,124.438
1481309334624435,21.1875,110.563,125.313
1481309334647022,9.0625,116.313,115.75
1481309334660944,8.375,115.938,100.188
1481309334683946,12.5625,109.75,90.1875
1481309334698945,23.1875,105.25,87
1481309334724452,40.5625,102.625,71.5
1481309334752932,39.4375,104.75,61.5625
1481309334758932,39.625,107.375,60.0625
1481309334780932,40.25,105.375,61.375
1481309334803934,39.5,101.688,67.5
1481309334818935,44.5625,102.063,69.875
1481309334849948,52.8125,103.25,70
1481309334863949,50.8125,97.3125,74.1875
1481309334879950,56.25,95.625,81.25
1481309334900951,64.375,104.688,88.6875
1481309334924459,72.4375,113.563,94.4375
1481309334939043,68.0625,109.813,93.6875
1481309334960970,68.8125,107.375,99.5
1481309334983970,81.25,114.438,99.5625
1481309334998972,94.375,117.375,96.75
1481309335021548,102.438,112.813,89.75
1481309335044078,103.625,112.188,79.5625
1481309335059058,106.625,115.063,72.875
1481309335082060,109.938,109.5,64.625
1481309335104128,111.5,102.25,59.4375
1481309335119109,118.625,102.313,56.0625
1481309335141591,123.938,107.063,49.625
1481309335164661,124.688,106.563,39.8125
1481309335178592,132.438,103.938,31.5625
1481309335201601,147.375,104.938,24.625
1481309335224674,155.375,110.5,12
1481309335239179,132.438,113.375,-1.1875
1481309335261234,120.938,110.563,-11.25
1481309335284184,145.313,115.938,-18.375
1481309335298181,157.75,128.625,-26.3125
1481309335321688,145.75,141.813,-29.875
1481309335343933,135.5,149.063,-34.5625
1481309335359015,145.313,156.25,-46.375
1481309335381029,163.125,162.188,-56
1481309335404013,164.313,170.25,-58.5
1481309335418937,164.438,177.438,-60.8125
1481309335441452,153.75,167.875,-73.375
1481309335463452,147.25,151.938,-85.3125
1481309335478454,143,149.875,-87.5
1481309335501455,153.875,143.188,-90.875
1481309335523962,166.875,134.5,-93.375
1481309335539090,174.75,121.688,-107
1481309335561038,139.125,114.75,-117.625
1481309335584021,106.75,107.75,-119.5
1481309335599020,130.063,104.625,-130.563
1481309335621600,143.063,102.75,-144.188
1481309335644126,131.25,92.1875,-155.625
1481309335659162,113.813,82.1875,-163.5
1481309335681129,104.625,76.625,-173.063
1481309335712128,100.313,69.3125,-185.75
1481309335719134,98.6875,61.625,-186.375
1481309335741296,95.125,51.625,-188.313
1481309335763297,98.1875,49.1875,-197.875
1481309335778296,86.5625,43.3125,-204.063
1481309335801302,70.75,31.6875,-203.375
1481309335823890,72.25,22.9375,-201.25
1481309335838731,82.75,16.5,-205.688
1481309335861665,95.6875,9.1875,-208.813
1481309335883732,90.25,-1.875,-195.438
1481309335898735,67.0625,-11.625,-184.25
1481309335921745,73.625,-16.0625,-191.938
1481309335943336,102.875,-29,-185.375
1481309335958342,139.438,-44.0625,-167.063
1481309335981409,164.438,-44.9375,-160.063
1481309336003410,145.125,-57.875,-159.25
1481309336018340,165.5,-77.9375,-152.5
1481309336040855,240.063,-87,-136.625
1481309336064088,300.188,-87.625,-117.813
1481309336078857,297.563,-101,-99.25
1481309336100928,300.875,-115.5,-77.5625
1481309336123970,341.313,-114.25,-57.625
1481309336138647,360.625,-114.813,-40.25
1481309336161580,357.563,-117.5,-14.625
1481309336183581,349.75,-115.375,5.625
1481309336200581,320.938,-114.125,28.1875
1481309336221593,279.875,-110.563,46.25
1481309336243677,236.125,-106.125,61.125
1481309336267676,212.063,-102.5,70.75
1481309336281678,185,-97.5625,85.5
1481309336303749,164.5,-89.8125,101.813
1481309336326260,157.125,-86,110.813
1481309336340854,144.188,-82.8125,118.75
1481309336363855,127.25,-80.1875,126.25
1481309336387787,114.563,-73.8125,134.813
1481309336401789,96.8125,-68.8125,141.5
1481309336423868,72.8125,-68.4375,148.813
1481309336445968,68.875,-64.9375,156.125
1481309336460899,64.8125,-58.25,163.375
1481309336483914,54.0625,-55.0625,171.313
1481309336505902,39.4375,-54.25,175.938
1481309336520902,28.375,-52.0625,179.25
1481309336545422,18.9375,-50.25,185.688
1481309336566423,16.625,-47.5625,193
1481309336581424,14.625,-46.25,196.5
1481309336603425,13.375,-43.1875,199.438
1481309336626432,8.9375,-38.5,201.688
1481309336641439,3.1875,-34.9375,203.313
1481309336663439,-1,-31,201.438
1481309336686524,8.9375,-25.0625,201.625
1481309336701515,30.0625,-20.9375,205.813
1481309336724024,43.875,-16.4375,211.625
1481309336748044,54.4375,-10.3125,216.313
1481309336761044,57.25,1.375,224.563
1481309336784091,57.625,3.875,231
1481309336806118,67,-2.5,228.688
1481309336824141,93.9375,1.4375,225.875
1481309336844219,114.688,27.75,229
1481309336866221,120.5,53.1875,226.563
1481309336882236,116.25,59.375,212.188
1481309336904223,109.75,75.3125,199.875
1481309336926303,124.563,96.5625,193.563
1481309336941413,147.438,104.688,182.375
1481309336963412,166.563,116.5,168.938
1481309336986484,175.875,136.313,149.313
1481309337001486,183.75,139.688,128.313
1481309337025496,183.625,133.063,111.375
1481309337047516,172.813,134.375,87.8125
1481309337061518,166.75,148.063,69
1481309337083589,175.688,145.5,49.5625
1481309337106586,195.75,130.875,31.375
1481309337121548,213.438,133.813,14.75
1481309337143591,207.75,145.125,4.25
1481309337166619,194.313,132.125,-12.875
1481309337182592,207.875,105.438,-29
1481309337203667,218.063,96.0625,-43.4375
1481309337226600,216.5,103.938,-52.9375
1481309337243108,214.25,100.25,-65.875
1481309337264113,221.375,88.875,-83.9375
1481309337286186,221.438,81.1875,-103.938
1481309337303110,184.188,82.375,-116.438
1481309337332192,142.875,74.75,-126.813
1481309337346763,169.938,62.9375,-140.313
1481309337362713,202.438,58.625,-154.375
1481309337383717,144.313,57.75,-161.063
1481309337407718,101.625,49.5625,-167
1481309337422716,139.063,53,-173.125
1481309337444059,145.813,52.4375,-184.75
1481309337468981,96.125,48.875,-198.438
1481309337483982,67.0625,38.1875,-213.125
1481309337504057,76.8125,42.0625,-222.125
1481309337526571,93.875,35.375,-229.125
1481309337542945,79.75,20.5,-234
1481309337564024,58.375,8,-236.5
1481309337586016,68.375,-2.3125,-246.625
1481309337602946,75.9375,-5.9375,-251.438
1481309337624027,60.3125,-15.625,-246.938
1481309337654775,53.375,-30.375,-241.5
1481309337662770,72.125,-39.875,-235.625
1481309337683843,86.1875,-55.625,-222.875
1481309337706776,128.75,-63.4375,-209
1481309337722852,159.063,-73.3125,-197.375
1481309337743739,155.313,-90.5,-179.75
1481309337766740,180.75,-108.75,-168.438
1481309337782738,237.75,-125.938,-150.688
1481309337803811,312.5,-130.938,-124.75
1481309337826319,335.188,-143.438,-98.1875
1481309337843410,321.75,-155.125,-67.8125
1481309337863405,319.438,-155.5,-50.1875
1481309337887410,330.313,-159,-23
1481309337902441,357.688,-158.438,11.875
1481309337923917,355.188,-154.938,51.4375
1481309337946530,324.875,-148.25,73.6875
1481309337962436,266.875,-141.938,84.25
1481309337983488,213.188,-133.875,95.5
1481309338006510,184.813,-122.125,108.813
1481309338030448,166.125,-110.625,121
1481309338051842,133.938,-101.063,132.063
1481309338065844,105.875,-92.5,141.813
1481309338082773,86.25,-84.6875,152
1481309338111803,76.3125,-76.1875,160.688
1481309338126295,59.625,-65.8125,167.438
1481309338142862,35.375,-59.4375,168.938
1481309338164863,15.9375,-55.8125,167.688
1481309338185863,10.6875,-50.5625,166.875
1481309338209867,10.625,-42.5,169.25
1481309338225449,4.4375,-34.1875,170.75
1481309338245957,-2.5,-27.75,172.875
1481309338262957,-11.125,-27,175.75
1481309338284959,-11.875,-24.6875,180.438
1481309338306033,-17.5,-20.875,183.688
1481309338328969,-24.4375,-17.875,183.938
1481309338345530,-26.5,-17.1875,179.313
1481309338366603,-32.75,-12.125,176.813
1481309338388552,-47.875,-9.6875,169.5
1481309338405533,-52,-8.25,148.688
1481309338426615,-35.8125,-6.625,124.563
1481309338449120,-16.75,-0.6875,106.313
1481309338471121,-12.875,4.0625,94.25
1481309338486122,-18.5625,1.5625,82
1481309338525740,-7.5625,-1.6875,68.8125
1481309338528240,3.25,-1.6875,57.5625
1481309338546871,4.375,-1.875,45.75
1481309338568942,0,-2,32.6875
1481309338584875,6.625,-1.3125,24.375
1481309338608872,8.625,-1.3125,18.4375
1481309338628885,9.5625,0.5,16.25
1481309338645040,10.6875,1.375,13.4375
1481309338666112,5.625,-0.0625,12.5
1481309338689044,6.1875,-0.5,11.3125
1481309338705045,8.9375,0.125,9.625
1481309338729124,11.125,-1.625,8.5625
1481309338749147,9.875,-2,11.8125
1481309338766147,0.9375,-2.9375,12.6875
1481309338786219,-7.9375,-4.125,7.625
1481309338802150,-8,-5.125,3.8125
1481309338825229,-2.9375,-5.125,3.375
1481309338846321,-1.625,-4.75,0
1481309338869256,-0.9375,-5.375,-6.1875
1481309338885254,-6.3125,-5.6875,-11.75
1481309338914256,-16.9375,-6.4375,-18.375
1481309338928834,-23.0625,-5,-29.9375
1481309338945471,-24.0625,-2.875,-44.0625
1481309338966486,-30.4375,-2.3125,-59.1875
1481309338988542,-40.4375,0.9375,-80
1481309339005475,-39.1875,7.5625,-104.25
1481309339028053,-41.0625,14.25,-122.875
1481309339048577,-51.75,20.25,-128.688
1481309339065575,-54.25,30,-137.625
1481309339087579,-56.8125,41.5,-152.375
1481309339108578,-69.0625,49.8125,-164.125
1481309339125585,-89.5,60.4375,-169.063
1481309339147607,-90.8125,69.75,-171.375
1481309339168680,-84.5625,79.5,-175.375
1481309339185609,-85.6875,89.625,-170.438
1481309339207611,-103.938,102.438,-162.688
1481309339229120,-124.5,113.063,-156.063
1481309339244777,-136.25,118.313,-150.375
1481309339267776,-132.125,123,-142.25
1481309339288846,-127.563,128.938,-128.813
1481309339304808,-127.625,142.563,-117.188
1481309339327787,-156.813,156.188,-110.375
1481309339357875,-202.188,163.063,-101.5
1481309339364875,-227.75,163.75,-84.9375
1481309339387874,-213.813,165.438,-59.0625
1481309339408875,-185.125,168.813,-36.9375
1481309339425385,-173.625,172.438,-17.8125
1481309339447956,-185.125,170.938,-1.6875
1481309339469027,-198.563,169.25,17.875
1481309339484958,-200.063,163.938,38.3125
1481309339507959,-183.5,156.938,61.0625
1481309339528970,-159.375,155.125,80.9375
1481309339545043,-153.688,154.25,95.3125
1481309339568044,-168.938,143.25,109.188
1481309339589102,-161.563,131.75,127.813
1481309339605044,-133.438,124.063,149.063
1481309339629559,-111.25,116.563,167.125
1481309339649181,-102.375,110.125,178.313
1481309339665106,-103.375,94,186.75
1481309339688108,-111.438,76.4375,202.938
1481309339709110,-99.9375,71.375,230
1481309339725241,-76.6875,66.125,248.75
1481309339747360,-75.8125,41.6875,255.125
1481309339768361,-92.875,13.125,259.938
1481309339785367,-80.375,2.6875,266.25
1481309339807366,-49.8125,1.9375,269.438
1481309339828872,-20.75,-13.125,272.188
1481309339844879,-56,-28.75,272.438
1481309339867882,-92.75,-45.5625,282.313
1481309339888884,-89,-58.875,286.313
1481309339904884,-90.125,-71.875,279.938
1481309339927898,-117,-80.6875,275.5
1481309339948666,-132,-86.6875,263.5
1481309339964668,-120.563,-96.375,253.313
1481309339987669,-117.688,-107.188,244.563
1481309340009672,-131.25,-119.688,230.813
1481309340031683,-149.25,-132.688,212.938
1481309340047895,-155,-141.563,192.813
1481309340069897,-152.5,-146.313,174.25
1481309340091017,-173.125,-154.375,156.938
1481309340107903,-194.25,-163.563,134.875
1481309340130410,-190.625,-164.375,114
1481309340151489,-186.813,-164.5,92.0625
1481309340167419,-187.625,-165.313,73.875
1481309340189491,-188.063,-167.688,54.5
1481309340211419,-189.438,-167.813,36.75
1481309340226929,-192.063,-164,15.25
1481309340249436,-191.313,-156.75,-6
1481309340272497,-180.438,-148.063,-23.5625
1481309340287438,-169.125,-139.313,-36
1481309340309440,-162.313,-129.5,-50.0625
1481309340331959,-159.375,-120.25,-64
1481309340348460,-156.313,-111.563,-76.9375
1481309340369530,-154.5,-105.5,-90.3125
1481309340392461,-147.188,-95.5625,-99.375
1481309340406525,-131.25,-82.375,-105
1481309340429472,-123,-69.125,-111.938
1481309340452484,-119.625,-60.4375,-119.063
1481309340466550,-104,-58.5625,-124.625
1481309340489550,-97.0625,-58.0625,-126.75
1481309340511482,-98,-56.6875,-129.125
1481309340526991,-91.5625,-55.6875,-134.875
1481309340550498,-86.125,-51.625,-140.375
1481309340571501,-71.4375,-47.875,-144.375
1481309340586572,-57.5625,-45.1875,-150.375
1481309340609501,-59.125,-41.0625,-155.313
1481309340632010,-59.6875,-36.5,-160.875
1481309340646590,-58.8125,-32.75,-163.188
1481309340670518,-61,-27.3125,-164.5
1481309340700530,-67.4375,-20.6875,-170.125
1481309340706522,-81.125,-9.5,-173.75
1481309340729536,-90.875,3,-176.313
1481309340751634,-90.625,10.5625,-182.813
1481309340766545,-81.1875,21,-189.188
1481309340789544,-73.6875,29.5625,-189.063
1481309340811548,-67.4375,40.3125,-189.75
1481309340827057,-79.625,48.9375,-184.625
1481309340857191,-82.5625,54.5625,-186.375
1481309340872188,-83.3125,62.3125,-189.813
1481309340887262,-93.0625,71.3125,-182.688
1481309340911190,-101.688,80.8125,-175.375
1481309340932198,-106.188,92.0625,-171.875
1481309340948710,-119.938,102,-171
1481309340969781,-138.813,112,-166
1481309340991716,-144.188,122.938,-157.625
1481309341006714,-152.438,136.75,-149.688
1481309341029727,-174.5,147.688,-134.938
1481309341051831,-200.688,156.75,-124.563
1481309341068739,-203.938,157,-111.313
1481309341096827,-164.438,157.438,-90.75
1481309341111741,-116.375,165.188,-73.0625
1481309341128756,-103.938,176.75,-58.3125
1481309341149765,-134.188,181.313,-49.9375
1481309341171765,-165.938,173.625,-42.5
1481309341188769,-149.875,168.813,-29.25
1481309341209767,-105.688,174.75,-9.25
1481309341232279,-98.3125,184.625,11.8125
1481309341248785,-129.875,182.375,23
1481309341269804,-153.313,167.938,31.9375
1481309341291788,-146.938,158.125,48.5
1481309341314820,-134.625,159.5,63.375
1481309341337389,-151,157.375,83.5
1481309341351912,-163.875,147.625,97.0625
1481309341374902,-157.188,134.125,112.875
1481309341389903,-151.188,123.5,135.438
1481309341413898,-143.813,115.063,159.313
1481309341428406,-131.25,107.75,185.563
1481309341449918,-132.188,95.5625,203.063
1481309341471988,-134.688,74.4375,215.813
1481309341488918,-125.313,49.0625,230.688
1481309341509003,-101.188,29.6875,246.125
1481309341531927,-83.9375,20.0625,255.438
1481309341554013,-83.75,12,266.063
1481309341568933,-61.125,-0.3125,272
1481309341591934,-86.25,-14.75,274.375
1481309341607937,-112.688,-42.375,278.938
1481309341629943,-117.438,-58.125,278.625
1481309341652021,-99.25,-68.125,277.25
1481309341667950,-71.375,-74.25,268.5
1481309341689956,-90.8125,-89.6875,257.375
1481309341711957,-127.125,-103.313,246.125
1481309341734460,-121,-110.688,230
1481309341748970,-96.375,-116.438,216.813
1481309341771970,-105.188,-125.188,203.313
1481309341794970,-117.125,-133.75,190.5
1481309341808972,-105.063,-137.375,179.625
1481309341831981,-88.5625,-140.75,163.75
1481309341855035,-106.688,-149.375,153.125
1481309341869060,-131.125,-153.563,143.688
1481309341891991,-134,-157.813,129.75
1481309341915026,-127.125,-162.813,109.813
1481309341929502,-115.875,-164.375,88.6875
1481309341952080,-109.125,-166.813,75.375
1481309341974014,-102.813,-170.688,64.8125
1481309341991011,-95.1875,-172.25,53.125
1481309342012053,-92.0625,-170,40.0625
1481309342034522,-100.313,-167.875,27.1875
1481309342051103,-99.125,-163.875,14.6875
1481309342072031,-91.375,-156.5,-2.6875
1481309342094041,-86.75,-151,-15.5625
1481309342111032,-74.4375,-149.625,-25.3125
1481309342132044,-66.25,-146,-30
1481309342155054,-64.25,-137.75,-31.6875
1481309342171053,-64.125,-129.313,-37.5625
1481309342192054,-58.5625,-123.75,-44.5625
1481309342214128,-55.9375,-118.125,-47.875
1481309342231062,-45.625,-112.75,-49.9375
1481309342252070,-34.5,-107.688,-52.75
1481309342274075,-32.1875,-105.188,-53.0625
1481309342291072,-41.0625,-106.188,-53.5625
1481309342312074,-35.5625,-104.375,-57.375
1481309342334584,-29.25,-99.625,-57.8125
1481309342351054,-31.3125,-94.5625,-59
1481309342372126,-26.4375,-89.125,-60
1481309342394075,-17.125,-81.3125,-62.3125
1481309342411060,-10.1875,-75.625,-64.5625
1481309342432070,-12.3125,-69.0625,-68.1875
1481309342454079,-25.5625,-63.1875,-72.1875
1481309342477080,-30.875,-58.625,-79.75
1481309342493080,-22.25,-50,-85.5
1481309342514082,-9,-40.6875,-86.8125
1481309342531089,0.3125,-32.1875,-88.375
1481309342551783,0.375,-26.3125,-91.6875
1481309342574714,-2.25,-21.25,-94.1875
1481309342590716,-11.6875,-16.3125,-91.9375
1481309342611716,-13.9375,-8.9375,-86.375
1481309342634725,-13.875,-2.3125,-80.625
1481309342657919,-9.625,2.5,-71.625
1481309342671923,-4.4375,5.875,-61.9375
1481309342693919,-2.5625,4.25,-51.8125
1481309342710922,0.5625,4.25,-42.5
1481309342731959,-0.0625,5.5625,-29.625
1481309342754061,-1.5,5.4375,-20.125
1481309342770994,-4.3125,4.625,-12.875
1481309342791994,-1.1875,4.5625,-6.9375
1481309342814996,-3.1875,4.25,-1.25
1481309342830500,-6.5,2,0.5625
1481309342851508,1.25,1.6875,-0.75
1481309342867509,6.5,3,-1.5625
1481309342890511,3.25,4,-4.3125
1481309342911537,-0.0625,5.625,-8.5
1481309342928021,1.0625,8.6875,-11.6875
1481309342950280,-2.375,15.0625,-15.875
1481309342973281,-10.5,27.4375,-20.375
1481309342994355,-21.625,37.6875,-30.25
1481309343010282,-24.5625,42.375,-43.5625
1481309343033292,-25.0625,51,-52.5
1481309343054807,-33.3125,64.5,-59.5625
1481309343069802,-41.9375,73.6875,-67
1481309343092872,-41.5625,81.3125,-75.25
1481309343114802,-38.1875,93.625,-84.4375
1481309343130321,-50.375,101.438,-91.8125
1481309343153595,-58.625,97.375,-92.5
1481309343174597,-38.0625,92.625,-92.5
1481309343190600,-21.0625,95.3125,-91.125
1481309343213600,-23.625,102.125,-91.0625
1481309343234603,-29.625,101.375,-94.1875
1481309343250114,-31.9375,94.25,-96.5
1481309343273118,-38.6875,90.0625,-92.875
1481309343294185,-36.5625,89.6875,-88.3125
1481309343310115,-27.25,88.125,-86.9375
1481309343333688,-19.75,88.0625,-88.625
1481309343354268,-27.5,86.625,-91.375
1481309343370201,-37.5625,83.25,-91
1481309343393201,-34.3125,78.5625,-89.5
1481309343414200,-23.6875,80.625,-91.4375
1481309343430722,-34.875,85.4375,-95.4375
1481309343453229,-67.4375,88.1875,-96.125
1481309343474233,-73.5625,75.0625,-91.375
1481309343490232,-38.5,75.4375,-88.875
1481309343513234,-36.3125,73.3125,-80.5
1481309343534742,-31.4375,63.25,-67.3125
1481309343550248,-13.375,51.6875,-54.5625
1481309343573251,-8.875,40.6875,-38.375
1481309343594323,-8.3125,30.4375,-23.875
1481309343610254,-0.625,21.1875,-11.375
1481309343633760,0.3125,12.5625,-4.0625
1481309343654337,-4.4375,5.5,0.5
1481309343670268,-6.0625,0.0625,3.0625
1481309343693268,-4.75,-2.6875,6
1481309343714355,-0.875,-5.25,8.625
1481309343730359,-1.4375,-7.375,10.25
1481309343752888,-11.625,-8.5,10.25
1481309343774890,-27.625,-9.125,7.625
1481309343789890,-33.75,-8.6875,7.6875
1481309343812889,-26.1875,-7.625,8.125
1481309343835899,-20.5625,-5.875,8.25
1481309343850374,-22.125,-6.4375,7.1875
1481309343873374,-24,-4.375,5.375
1481309343896377,-29.25,-4.0625,4.0625
1481309343910377,-37.5625,-3.9375,2.1875
1481309343932956,-49.6875,-3.125,0.0625
1481309343955491,-66.6875,-3,-1.5625
1481309343977466,-80,-2.5625,-2.25
1481309343992466,-69.75,-3,-2.0625
1481309344015477,-46.5,-2.8125,-0.8125
1481309344036975,-32.875,-3.4375,-0.625
1481309344052484,-31.5625,-4.5625,-2
1481309344076485,-19.625,-4.5625,-2.0625
1481309344097491,1.875,-4.3125,-1.6875
1481309344112489,24.6875,-4.375,1.625
1481309344135994,50.75,-6.5,5.1875
1481309344156457,70.875,-8.1875,7.625
1481309344172454,72.875,-10,9.25
1481309344195460,67.875,-9.5,14.125
1481309344217456,77.8125,-9.9375,16.8125
1481309344240962,86.8125,-11.5,21.1875
1481309344255474,74.9375,-10.0625,20.125
1481309344277471,48.8125,-9.5,19.1875
1481309344292509,35.3125,-9.125,16.375
1481309344315485,28.6875,-8.125,13.8125
1481309344337056,11,-3.75,11
1481309344352565,-14.75,-2.8125,6.75
1481309344383565,-18.375,-3.375,4
1481309344396636,-14.4375,-3.25,2.3125
1481309344412565,-8.0625,-0.875,3.5
1481309344436167,-10.125,0.75,1.75
1481309344456692,-21.8125,-1.0625,1.125
1481309344472691,-15.0625,-2.25,1.25
1481309344495691,1,-1.0625,0.6875
1481309344516764,10.9375,-0.8125,2.375
1481309344532775,13.5625,-2,2.25
1481309344555784,11.125,-2.4375,3.375
1481309344576856,7.875,-2.3125,3.125
1481309344592784,1.3125,-1.25,3
1481309344615786,5.125,-2.75,3.5625
1481309344637374,20.625,-2.3125,4.75
1481309344652881,3.25,4.625,0.75
1481309344675882,-70.9375,11.4375,-4.625
1481309344696964,-166.813,15.5625,-5.1875
1481309344712887,-301.875,9.4375,-16.0625
1481309344735436,-419.375,17.5625,-14.1875
1481309344756642,-469.125,30.4375,-5.4375
1481309344772640,-397.313,21.9375,-12
1481309344795639,-196.188,9.5,-16.5
1481309344816710,58.4375,-5.1875,3.75
1481309344832648,246.188,-10.5,19.75
1481309344855156,350.813,-13.0625,37.125
1481309344878158,399.75,-24.5625,44.375
1481309344899228,418.938,-32.75,52.9375
1481309344915159,373.188,-37.0625,50.4375
1481309344938743,242.563,-11.375,35.625
1481309344959254,45.875,4.9375,9.125
1481309344975254,-179.625,11.25,-22.5
1481309344998254,-350.125,10.25,-40.625
1481309345019327,-415.438,14.0625,-29.8125
1481309345035271,-398.25,16.4375,-19.6875
1481309345058276,-333.188,6.0625,-26.25
1481309345079347,-167.5,0.5625,-27.0625
1481309345095281,67,-6.375,-3.8125
1481309345118279,281.875,-18.3125,36.9375
1481309345139791,427.313,-31.875,56.5625
1481309345155300,486.688,-43.9375,62.1875
1481309345178298,457.313,-41.5625,48.75
1481309345199404,299.063,-2.3125,19.9375
1481309345215299,54.625,20.375,-8.25
1481309345238811,-254.438,22.875,-49.75
1481309345259321,-452,23.75,-70.3125
1481309345275321,-505.188,34.4375,-66.6875
1481309345298321,-459.375,34.4375,-60.0625
1481309345319393,-376,25,-43.375
1481309345335333,-244.063,12.4375,-22.625
1481309345358920,-30.4375,-0.5625,-4
1481309345379926,230.375,-8.9375,26.375
1481309345394930,406.75,-21,55.25
1481309345417938,494.063,-36.8125,71.75
1481309345439508,514.25,-50.6875,79
1481309345455513,468.063,-52,74.9375
1481309345478517,313.438,-6.25,39.4375
1481309345499612,74.875,22.8125,-24.4375
1481309345515521,-269.563,23.875,-92.875
1481309345538528,-549.313,16.125,-98.8125
1481309345559539,-621.688,16.0625,-74.4375
1481309345575541,-552.188,17.3125,-49.6875
1481309345598542,-444.25,6.6875,-18.375
1481309345619642,-275.313,0.125,-13.9375
1481309345635650,-56.4375,-4.5625,-16.3125
1481309345658661,155.688,-9.875,3.9375
1481309345679731,335,-16.0625,30.875
1481309345703662,453.5,-26.9375,43.875
1481309345717662,518.875,-45.6875,57.25
1481309345739756,536.75,-63.375,68.875
1481309345754832,535.75,-72.8125,69.875
1481309345777764,505.313,-64.375,68.5
1481309345800764,425,-43.5625,52.0625
1481309345814839,301.375,-27,19.5625
1481309345837847,153.813,-11.5625,-9.125
1481309345860855,27,-3.5,-21.5
1481309345881940,-42,1.6875,-27
1481309345897859,-72.75,5.625,-26.9375
1481309345920860,-90.1875,7.875,-23
1481309345941942,-85.0625,6.3125,-16.4375
1481309345957948,-58.5625,3.8125,-11.5625
1481309345980949,-26.6875,3.625,-4.4375
1481309346002021,-8,6.8125,0.8125
1481309346017951,-13.8125,9.6875,0.25
1481309346040962,-43.375,10.1875,-2.375
1481309346062040,-58.8125,7.25,-3.5625
1481309346077971,-48.625,9.6875,1.75
1481309346100975,-47.125,14.4375,5.6875
1481309346121979,-54.625,15.5,6.9375
1481309346138003,-50.875,12.5625,9.4375
1481309346160838,-40.75,11.25,13
1481309346181906,-36.3125,13.6875,13.75
1481309346197841,-52.25,11.9375,11.6875
1481309346220842,-51.6875,5,5.125
1481309346242427,-30.875,2.1875,2.5
1481309346257832,-9.4375,3.3125,4.0625
1481309346280833,8.4375,4.1875,3.4375
1481309346301903,8.125,3.125,0.25
1481309346317837,-5.9375,0.5625,-3.6875
1481309346341418,-11.5,-0.0625,-4.75
1481309346361997,-17,1.375,-2.3125
1481309346377929,-23.625,3.625,0.25
1481309346400930,-21.6875,3,4.9375
1481309346421936,-19,4.5,10.9375
1481309346438045,-34.875,9.3125,20.4375
1481309346460636,-64.625,15.75,36.6875
1481309346489641,-97.125,21.9375,49.75
1481309346497636,-127.375,29.9375,62
1481309346520639,-148.188,32.5625,79.25
1481309346542210,-142.938,32.25,99.9375
1481309346558115,-134.938,36.25,122.125
1481309346581116,-132.625,43.875,143.313
1481309346603125,-124.5,55.75,161.375
1481309346618118,-134.125,60.5625,181.063
1481309346640699,-153.188,64,198.5
1481309346661963,-150.063,66.875,212.188
1481309346677897,-145.375,80.4375,232.313
1481309346699899,-131,82.625,243.375
1481309346722902,-112,81.125,235.75
1481309346737922,-103.813,84.625,228.125
1481309346759955,-115.563,90,225.813
1481309346782962,-113.875,84.4375,213.688
1481309346804962,-97.5625,78.1875,189.563
1481309346819959,-66.4375,63.0625,160.313
1481309346843467,-30.875,53.4375,129.625
1481309346864236,-0.9375,41.9375,104.688
1481309346880233,5.5625,27.125,81.1875
1481309346903233,19.8125,7.9375,56.0625
1481309346924238,31.3125,-2.75,38.75
1481309346940257,24.0625,-11.375,29.875
1481309346963518,12.1875,-19.1875,21.5625
1481309346984590,18.6875,-22.5625,15.1875
1481309347008518,28.9375,-22.1875,17.8125
1481309347023519,30.6875,-19.4375,21.75
1481309347044532,28.875,-16.1875,19.5
1481309347060586,21.875,-14.5,18.0625
1481309347083591,13.125,-12.8125,18.8125
1481309347104693,-1.375,-10.25,17.5625
1481309347120595,-30.375,-9.875,5.3125
1481309347143625,-90.8125,-21.9375,-15.8125
1481309347164131,-205.375,-46.625,-35.4375
1481309347180131,-299.25,-75.75,-44.3125
1481309347211134,-344.063,-61.125,-54.75
1481309347224135,-298.438,-18.625,-72.6875
1481309347240693,-172.938,18.25,-27.25
1481309347253835,83,37.5,12.6875
1481309347276810,175.438,33,10.8125
1481309347307735,98.9375,17.3125,1.0625
1481309347313735,84.75,11.0625,-3.3125
1481309347336769,159.75,13.6875,17.625
1481309347359141,218.25,21.625,51.5
1481309347374163,262.75,30.125,86.5625
1481309347396223,276.438,26.5,92.5
1481309347419140,265.125,12.375,64
1481309347434151,209.875,13.1875,39.5
1481309347456658,127.813,18.875,24.5
1481309347479737,-4.5,9.125,22.0625
1481309347493672,-172.625,-20.5625,19.6875
1481309347516679,-274.313,-42.625,9.625
1481309347539777,-290.438,-47.375,-8.8125
1481309347554321,-271.688,-40.25,-24.25
1481309347576391,-278.5,-35.0625,-29.0625
1481309347599414,-294.938,-26.875,-54.4375
1481309347613338,-183.313,-10.5,-85.625
1481309347636337,-53.5,12.3125,-67.75
1481309347659659,44.75,24.125,-26.625
1481309347673586,182.625,31,-0.125
1481309347696675,288.688,35.25,37.3125
1481309347719629,345.563,28.3125,65.875
1481309347734188,358.375,19.25,87.25
1481309347759229,294.75,-6,70.875
1481309347779262,217.75,-7.25,33.25
1481309347794234,167.688,6.5625,4.75
1481309347816299,41.375,10.0625,10.875
1481309347839766,-186.563,-16,34.9375
1481309347854296,-305.375,-28.3125,13
1481309347876323,-309.125,-24.4375,-4.25
1481309347899369,-299.938,-19.1875,-12.5
1481309347922307,-291.188,-33.25,-33.4375
1481309347936311,-288.438,-40.3125,-68.75
1481309347959857,-240.563,-18.5625,-99.5
1481309347973820,-150.438,9.6875,-55.5
1481309347996823,2.875,28.8125,2.9375
1481309348019880,228.438,43.9375,16.8125
1481309348034343,334.188,51.375,36.625
1481309348056516,378.813,53.5,81.5
1481309348079436,361.938,11.75,119.813
1481309348094440,238.125,-29.125,83.6875
1481309348125517,300.438,4.25,28
1481309348139057,289.25,50.5,-5.5
1481309348161646,11.125,14.6875,22.125
1481309348176649,-262.688,-40,19.8125
1481309348198660,-279.563,-18.125,-8.1875
1481309348221581,-253,12.1875,4.875
1481309348236589,-294.25,-2.5,-16.1875
1481309348258879,-331.813,-29.9375,-55.875
1481309348281879,-330.375,-50.25,-71
1481309348295881,-324.688,0.875,-67.3125
1481309348318885,-223,50.3125,-54.4375
1481309348342324,-14.1875,67.5,0.8125
1481309348355853,195.75,64,-2.9375
1481309348378853,221.813,58.4375,-42.6875
1481309348401927,191.875,69,11.0625
1481309348415946,281.625,65.4375,79.0625
1481309348447442,333.688,4.625,82.6875
1481309348462448,401.563,-11,51.75
1481309348477494,382,-8.4375,29.375
1481309348499447,164.625,-18.5625,15.1875
1481309348522450,-101.75,-46.6875,3.3125
1481309348536455,-177.188,-34.5625,10.4375
1481309348559183,-122.438,-14.3125,23.875
1481309348582182,-93.1875,-2.3125,42.8125
1481309348596184,-180.563,-19.125,39.3125
1481309348619185,-315.813,-44.5,-19.5
1481309348642196,-365.5,-75.5,-61.875
1481309348656376,-373.25,-70.125,-55.875
1481309348678448,-280.875,-0.9375,-61.25
1481309348702398,-86.9375,42.4375,-15.8125
1481309348716451,145.625,49.9375,22.875
1481309348738962,277,28.5,-15.9375
1481309348761551,208.688,23.3125,-40.125
1481309348776553,153.5,48.8125,15.625
1481309348798583,269.875,48.6875,106.938
1481309348822486,255.063,-6.8125,101.125
1481309348836563,290.438,-9.75,63.5625
1481309348858748,397.375,9.5,13.375
1481309348881748,202.875,18.8125,-14.125
1481309348896706,-120.813,-23,-2.125
1481309348918750,-198.125,-39.625,-3.0625
1481309348950338,-60.125,-8.3125,14.125
1481309348956268,0.75,15.875,45.6875
1481309348979270,-117.563,-2,55.6875
1481309349002345,-309.375,-29.5,12.3125
1481309349016343,-417.625,-51.375,-38.3125
1481309349039352,-338.063,-67.625,-32.25
1481309349062349,-326.625,-27.5625,-25.375
1481309349076421,-133.375,27.625,-6.875
1481309349099360,89.4375,45,62.0625
1481309349122350,239.938,16.8125,57.8125
1481309349136432,165.438,0.875,17.5625
1481309349159004,-34.6875,-0.5625,-6.1875
1481309349182107,-119.438,1.0625,-19.1875
1481309349198007,-32.3125,1.375,-6.875
1481309349219078,42.125,-1.75,4.75
1481309349242088,44.75,-3.75,0.375
1481309349256113,14.625,-5.9375,-3.5625
1481309349279193,-6.0625,-8.1875,-4.25
1481309349302185,-10.1875,-6.5,-6.4375
1481309349316185,-4.625,-3.375,-7.8125
1481309349339123,14.0625,1.9375,-16.4375
1481309349362246,22.625,5.125,-25.3125
1481309349376177,16.3125,4.6875,-33.3125
1481309349399177,5.8125,3.6875,-51.125
1481309349422179,10.4375,7.4375,-74.4375
1481309349436767,26,17.375,-100.313
1481309349458837,36.25,27.5625,-124.563
1481309349481846,38.3125,37.125,-147.813
1481309349496777,31.8125,44.25,-174.313
1481309349518862,24.9375,50.375,-201
1481309349541358,26,57.8125,-223.25
1481309349556379,28.875,62.6875,-237.875
1481309349579382,35.625,67.5,-244.125
1481309349601452,45.1875,67.25,-251.563
1481309349616464,58.0625,65.8125,-256.688
1481309349638895,62.25,60.75,-259.813
1481309349661576,54.1875,57.375,-262.188
1481309349676577,53.8125,57.5,-261.063
1481309349707545,56.4375,57.25,-254.5
1481309349721589,73.5625,52.6875,-252.563
1481309349736589,93.3125,46.125,-248.875
1481309349758689,105.563,40.625,-240.563
1481309349781727,111.813,36.125,-234.25
1481309349796733,111.5,34.8125,-232.5
1481309349818742,112.875,33.25,-236.688
1481309349841752,118.75,35.25,-245.25
1481309349856771,115.188,35.5625,-249.875
1481309349878779,112.313,34.4375,-242.625
1481309349901793,129.813,33.375,-237.188
1481309349916803,147,32.25,-233.5
1481309349939282,148.25,24.6875,-227.688
1481309349960871,131.563,14.875,-213.75
1481309349978867,114.688,10,-211
1481309349998940,86.3125,5.5,-215.5
1481309350021874,90.8125,2.125,-213.5
1481309350036464,117.75,-2.125,-210.25
1481309350059107,122.438,-7.8125,-206.688
1481309350081108,103.5,-16.25,-204.938
1481309350096118,86.375,-21.75,-189.875
1481309350119110,86.75,-20.125,-176
1481309350141621,85.8125,-21.625,-170.375
1481309350156142,61.625,-27.4375,-155.813
1481309350180144,15.125,-27.3125,-129.688
1481309350201214,-1,-23.3125,-104.188
1481309350216216,8.375,-21.5625,-79
1481309350239157,11.4375,-20.3125,-58.4375
1481309350261252,-15.5625,-19.1875,-39.75
1481309350276253,-64.125,-18.375,-31.0625
1481309350299257,-95.6875,-19.5,-21.5
1481309350321190,-87.6875,-18.875,-8.8125
1481309350344766,-81.8125,-19.625,2.3125
1481309350359298,-66.8125,-23.1875,3.8125
1481309350381299,-61.25,-25.3125,1.5625
1481309350396380,-69.8125,-24.9375,5.3125
1481309350419310,-46.6875,-23.625,16.375
1481309350441882,42.0625,-18.9375,30.125
1481309350459428,188.875,-17.5625,49.9375
1481309350479435,403.563,-15.1875,86.125
1481309350501501,612.5,-31.6875,127.5
1481309350517437,771,-48,176.188
1481309350542014,827.125,-37.4375,189.563
1481309350561542,682.5,-8.1875,185.5
1481309350577533,372,29.5,159.75
1481309350598536,90.8125,34.9375,41.9375
1481309350621541,-213.375,16,-81.5625
1481309350644119,-502.125,15.6875,-103.75
1481309350658835,-608,24.0625,-123.125
1481309350681837,-638.875,35.25,-124.375
1481309350704842,-688.313,39.75,-114.75
1481309350718910,-751,23.75,-80.8125
1481309350741421,-726.375,4.875,-51.4375
1481309350764209,-425.438,16.75,-41
1481309350779154,170.813,-24.5,2.125
1481309350809212,647.5,-53.75,34.875
1481309350824142,832.313,-48.6875,79
1481309350847151,840.563,-52.6875,107.438
1481309350861242,787.875,-52.625,134
1481309350884174,692.813,-43.3125,145.938
1481309350899248,508.188,-18.6875,124.125
1481309350921178,238.375,-0.625,31.9375
1481309350944255,-82.8125,8.75,-66
1481309350958763,-380.625,25,-90.9375
1481309350981773,-595.125,36.0625,-97
1481309351003765,-697.063,46.375,-112.375
1481309351018835,-812.813,48.875,-87.875
1481309351041846,-839.313,35,-60.6875
1481309351064440,-734.25,28.4375,-53.4375
1481309351078511,-430.438,30.125,-56.75
1481309351101512,135.75,-5.75,-19.75
1481309351123516,612.438,-38.4375,12.625
1481309351139022,804.5,-36.625,58.5625
1481309351161632,801.875,-27.5,87.75
1481309351183629,778.438,-28,124.688
1481309351198632,719.813,-24.375,148.875
1481309351221561,573.813,-1.0625,137.063
1481309351244069,287.938,0.5625,50
1481309351258746,-61.25,11.6875,-31.75
1481309351281748,-310.813,26.8125,-77.9375
1481309351303750,-505.688,33.625,-83.125
1481309351318819,-592.188,44.9375,-77.6875
1481309351341329,-656.5,56.75,-64.5625
1481309351364053,-699.75,50.5625,-61.375
1481309351379055,-665.688,31.375,-63.8125
1481309351401055,-479,29.8125,-65.0625
1481309351423998,-20,-2.3125,-34.3125
1481309351440567,469.938,-37.75,10.8125
1481309351461088,732.063,-42.625,51.5
1481309351484159,765.688,-34.625,85.5
1481309351500090,676.938,-32,119.375
1481309351521097,583.313,-29.75,135.375
1481309351544172,493,-16.125,119.063
1481309351566267,333.25,1.25,82.75
1481309351581267,117.063,15.1875,26.0625
1481309351604316,-99.3125,38.875,-45.8125
1481309351620200,-302,38.1875,-91.1875
1481309351641710,-466.125,36,-109.5
1481309351664309,-597.938,55.3125,-107.875
1481309351680263,-701.938,67.1875,-85.9375
1481309351701333,-729.25,48.25,-72.9375
1481309351725264,-666.438,32.8125,-54.5
1481309351740344,-523.5,26.125,-37.0625
1481309351760922,-285,-5.8125,-24.3125
1481309351783924,68.375,-42.9375,-7.75
1481309351816859,428,-70.25,2
1481309351820861,661.375,-76.125,25.0625
1481309351843937,724.313,-87.6875,60.3125
1481309351860531,678.375,-93.8125,89.5625
1481309351881601,614.688,-87.1875,105.5
1481309351903534,546.188,-62.625,105.938
1481309351920534,423.25,-35.4375,96.625
1481309351941543,224.875,-21.75,62.1875
1481309351963658,40.9375,-8.6875,-9.5625
1481309351980587,-90.0625,2.625,-61.4375
1481309352001660,-150.25,-4.875,-84.8125
1481309352023705,-108,-3.5625,-68
1481309352040672,-29.25,7.875,-29.1875
1481309352061707,-7.875,7.625,-1.4375
1481309352083776,-28,6.0625,-7.0625
1481309352100705,-41.1875,5.4375,-14.1875
1481309352123709,-27.4375,5.625,-7.9375
1481309352144288,-3.5625,6.1875,-6.375
1481309352160810,-7.625,5.5625,-6.6875
1481309352181824,-27.75,4.25,-9.1875
1481309352203816,-28.4375,3.8125,-10.1875
1481309352219886,-13.8125,5.8125,-3.375
1481309352241821,-9.6875,5.9375,5.5625
1481309352263842,-10,2.9375,9
1481309352279849,-10.25,0.625,11.0625
1481309352301848,-1.25,0.625,13.125
1481309352323915,6.6875,0.75,13.25
1481309352340353,3.25,0.8125,12.5
1481309352362885,4.25,-0.875,12.4375
1481309352383957,9.875,-0.3125,11.6875
1481309352399907,14,1.25,10.0625
1481309352422888,15.1875,1.8125,10.5
1481309352444470,10.4375,2,9.9375
1481309352460044,11.0625,1.4375,10.125
1481309352482990,27.1875,1.25,12.125
1481309352503996,33.375,2.5,17.3125
1481309352526064,31.625,4.75,21.6875
1481309352543072,33,4.0625,31.625
1481309352564167,46.9375,8.25,46.1875
1481309352586168,73.75,15.5625,73.875
1481309352603097,91.4375,19.625,104.563
1481309352624099,87.5,20.1875,123.5
1481309352646680,69.375,20.875,140.125
1481309352663202,60.875,24.0625,163.188
1481309352684276,64.75,23.0625,184.688
1481309352706205,67.25,21.6875,201.125
1481309352722211,62.5625,16.75,213.938
1481309352744285,46.875,15.875,226.375
1481309352766377,43,17.875,240.75
1481309352782380,47.8125,21.75,254.75
1481309352804309,45.625,26.6875,265.563
1481309352826382,20.9375,36.4375,281.688
1481309352842902,6.1875,43.75,284.188
1481309352863494,-9.1875,50.8125,280.063
1481309352886489,-21.75,58.9375,267.5
1481309352902435,-1.9375,81.25,269.375
1481309352923500,-5.375,91.875,267.188
1481309352946539,-11.8125,94.4375,245
1481309352962563,-30,96.5625,203.875
1481309352986565,-18.4375,80.25,140.375
1481309353006637,15.75,37.25,55.4375
1481309353028568,19.1875,-4.625,-39.3125
1481309353044079,-18.5,-29.5,-122.688
1481309353066725,4.875,-51.375,-190.563
1481309353082654,44.25,-73.8125,-253.625
1481309353103657,44.3125,-93.375,-306.375
1481309353126659,5.375,-97.3125,-353.25
1481309353150666,-13.8125,-90.375,-385.5
1481309353163779,43.0625,-81.4375,-396.5
1481309353186712,132.875,-81,-414.188
1481309353202710,132.938,-71.1875,-418.875
1481309353223783,116.063,-64.5625,-382.688
1481309353246720,74.6875,-61.6875,-367.313
1481309353262741,15.5625,-54.75,-331.625
1481309353285742,-10.6875,-53.375,-259.938
1481309353314814,11,-40.375,-179.125
1481309353322743,27.625,-15.8125,-67.4375
1481309353345762,38.25,2.375,17.6875
1481309353366166,12.9375,26.1875,98.8125
1481309353383064,-14.75,45.0625,170.188
1481309353405064,-21.0625,60.9375,240.5
1481309353426135,-27,77.625,304.25
1481309353443147,-24.3125,86.9375,352.625
1481309353465677,-40.0625,99.4375,383.375
1481309353486682,-78.5625,112.188,401.688
1481309353510681,-105.313,122.313,406.875
1481309353525684,-119.813,137.438,406.563
1481309353546693,-108.75,149.375,405.438
1481309353562712,-81.125,150.625,395.25
1481309353585713,-81.8125,139.313,373.938
1481309353606762,-95.125,123.625,322.75
1481309353622714,-46.3125,98.875,250.688
1481309353646227,-35.0625,74.5625,167.75
1481309353666821,-24.5,30.5,65.25
1481309353682811,3.5625,-14,-38.5
1481309353704806,11.6875,-53.8125,-131.313
1481309353734876,37.25,-80.6875,-204.188
1481309353749317,53.5625,-102.125,-259.438
1481309353764893,58.1875,-126.125,-305.938
1481309353786852,30.625,-138.375,-345.125
1481309353802847,28.0625,-124,-364.313
1481309353824858,47.375,-98.0625,-362.125
1481309353846864,88.5625,-86.5625,-361.125
1481309353862939,125.063,-89.375,-377.438
1481309353884949,108.938,-90,-379.438
1481309353906022,32.625,-72,-356.625
1481309353922941,10.9375,-65.1875,-319.438
1481309353945452,40.0625,-70.25,-313.25
1481309353966093,-2.25,-57.25,-252.813
1481309353983023,0.1875,-32.25,-156.313
1481309354005023,22.8125,-14.0625,-55.125
1481309354026096,27.25,5.25,42.6875
1481309354043039,5.6875,31.25,123.625
1481309354065112,-11,51.25,193.5
1481309354086230,-26,66,242.625
1481309354103115,-38.6875,76.25,284.313
1481309354125116,-40.125,76.4375,318.938
1481309354146268,-47.125,80.125,338.625
1481309354162386,-50.5625,82.8125,358.75
1481309354185315,-65.8125,83.8125,361.938
1481309354206315,-83.875,96.625,359.125
1481309354230317,-81.25,104.25,356.125
1481309354245326,-77.5625,109.188,352.5
1481309354268388,-47,118.063,345.688
1481309354284388,-38.375,122.938,330.625
1481309354306387,-68.3125,102.438,285.25
1481309354327393,-74.375,59.75,194.125
1481309354349903,-22.4375,19.75,89
1481309354373475,-24.6875,-5.875,1.625
1481309354387481,-23.125,-30.5625,-70.875
1481309354409547,23.9375,-47.8125,-134.563
1481309354424551,49.1875,-56.375,-185
1481309354447492,30.3125,-65.875,-229.938
1481309354469514,14.1875,-76.125,-281.5
1481309354484582,12.5625,-80.75,-322.5
1481309354507516,17.75,-79.3125,-345.375
1481309354538027,26.4375,-74.25,-369.063
1481309354544529,27.875,-63.5625,-393.125
1481309354567035,28.125,-37.6875,-416.375
1481309354590038,22.125,-13.125,-433
1481309354605037,-23.0625,-8.8125,-448.938
1481309354627116,-55.875,-18.625,-463.5
1481309354650052,-105,-23,-447.75
1481309354664712,-134,-29.375,-375.5
1481309354686649,-117.063,-56.8125,-336.063
1481309354709723,-100.25,-39.5,-305.938
1481309354731716,-55.8125,-27.8125,-218.5
1481309354747154,-11.3125,-17.9375,-115.813
1481309354769224,25.1875,2.625,-6.375
1481309354785164,5.3125,0.0625,28
1481309354807234,-33.0625,-2.6875,29.25
1481309354829259,-55.625,1.4375,17.6875
1481309354844673,-60.3125,-0.0625,-1.625
1481309354866861,-64.8125,-0.4375,-9.6875
1481309354889790,-63.1875,3.3125,-6.875
1481309354904791,-33.125,4.0625,1.8125
1481309354926863,-16.5,5.4375,11.1875
1481309354949803,-37.375,5.9375,17.1875
1481309354964379,-63.375,8.4375,18.875
1481309354987314,-77.6875,17.1875,24.375
1481309355009419,-98.5625,26.4375,34.1875
1481309355024382,-117.75,33.375,49.375
1481309355047324,-85.9375,43,59.125
1481309355069335,-45.5625,52.1875,71.4375
1481309355084403,-55.9375,63.8125,80.875
1481309355107404,-87.9375,71.5625,88.375
1481309355137847,-93.4375,78.375,93.9375
1481309355144847,-75.375,83.3125,106.563
1481309355168353,-63.0625,92.8125,116.438
1481309355189426,-51.625,102.188,126.438
1481309355204366,-27.75,107.563,127
1481309355227361,-10.5625,119.125,127.563
1481309355251369,-7.875,130.25,126.125
1481309355264987,10,128.688,126.75
1481309355286925,60.625,135.688,125.563
1481309355309922,52.5625,137.875,132.25
1481309355325922,23.5,127.688,124.188
1481309355347432,25.0625,115.875,105.438
1481309355369441,44.25,100.875,74.9375
1481309355385441,62.6875,88.3125,44.5625
1481309355407489,70.75,79.625,31.6875
1481309355429548,69.3125,70.375,22.8125
1481309355446951,63.8125,60,18.0625
1481309355467464,48.9375,51.625,11.6875
1481309355489463,18.25,41.8125,9.9375
1481309355506462,-3.75,33.25,12
1481309355534534,-10.5625,25.9375,15
1481309355549979,-7.75,21.9375,17.75
1481309355566483,-15.0625,20.25,15.3125
1481309355587488,-36.625,19.9375,9.375
1481309355609557,-65.4375,22,5.625
1481309355625561,-106.563,27.5625,-1.8125
1481309355649002,-158.188,30.3125,-10.8125
1481309355669517,-192.125,33.875,-17.25
1481309355693513,-228.188,40.25,-22
1481309355707520,-308.813,38.0625,-18.5
1481309355731517,-339,27.0625,-25.875
1481309355746030,-314.125,30.5,-28.6875
1481309355767539,-328.188,37.375,-17.125
1481309355789539,-368.688,34.8125,-12.25
1481309355806537,-391.625,36.375,-11.6875
1481309355826610,-395.563,36.25,-15.1875
1481309355850056,-371.563,32.1875,-15.375
1481309355865630,-326.563,34.9375,-19.3125
1481309355887565,-317.75,40.9375,-23.8125
1481309355909634,-348.438,39.75,-32.1875
1481309355925594,-376.25,42.3125,-38.9375
1481309355947581,-388.313,54.75,-36.375
1481309355971590,-372.563,63.875,-27.6875
1481309355985588,-346.938,64.1875,-15.8125
1481309356007595,-305.875,64.875,-9.6875
1481309356029663,-217.125,61.9375,-0.9375
1481309356045689,-144.75,56.625,0.25
1481309356067706,-107.563,51.8125,2.875
1481309356089701,-91.5,36.8125,14.0625
1481309356111704,-43.125,19.9375,23.125
1481309356126772,-1.875,0.875,18.5
1481309356149713,53.3125,-16.375,14.8125
1481309356171720,105.188,-31.3125,13.3125
1481309356186726,168.125,-44.5,7.1875
1481309356209747,265.063,-58.8125,8.4375
1481309356225722,386.625,-72.6875,35.0625
1481309356249236,479.875,-86.3125,71.125
1481309356269826,475.313,-104.938,82.875
1481309356285743,453.625,-120.75,80.125
1481309356308744,450.688,-126.313,82.9375
1481309356329806,440.813,-118.375,91.5
1481309356345755,405.813,-108.938,98.8125
1481309356368765,368.313,-106.813,99.0625
1481309356389781,343.5,-98.5,92.875
1481309356405769,319.063,-87.8125,81.75
1481309356428768,302.063,-77.3125,75.75
1481309356449785,290,-67.75,77
1481309356471792,279,-58.75,70.75
1481309356488794,266.063,-60.5,65.3125
1481309356509866,277.688,-59.9375,63.1875
1481309356531798,294.063,-58,59.6875
1481309356554814,307.438,-53.875,54.1875
1481309356569823,303.063,-55.75,48.75
1481309356591887,293.625,-60.5,48.5
1481309356608817,300.563,-63.875,48.75
1481309356629889,306.438,-61.625,48.1875
1481309356652333,303.688,-55.6875,46.375
1481309356668840,286.313,-44.6875,39.875
1481309356689854,232.875,-29.0625,24.5625
1481309356711843,136.25,-14,3
1481309356728842,39.8125,-7.4375,-16.0625
1481309356749858,-0.9375,-1.375,-19.75
1481309356771865,-12.625,10.3125,-20.8125
1481309356788865,-29.1875,14.4375,-21.8125
1481309356809915,-50.3125,10.9375,-15.5625
1481309356831966,-41.3125,14.25,-1.8125
1481309356848881,-18.5625,25.875,16.5
1481309356869891,-33.1875,39.6875,29.0625
1481309356891957,-60,45.3125,58.4375
1481309356908888,-43.5625,47.625,103.688
1481309356929962,-14.4375,59.4375,140.688
1481309356952406,-25.875,70.5625,167.375
1481309356968913,-31.5,70.1875,191.625
1481309356990014,-47.1875,79,215
1481309357011918,-63.4375,89.125,224
1481309357028916,-72.0625,91.8125,233.875
1481309357049932,-67.5,88.3125,239.25
1481309357071938,-62.8125,87.75,239
1481309357087940,-65,91.4375,239.5
1481309357109945,-53,94.375,236.813
1481309357131970,-54,99.3125,237.875
1481309357147951,-56.0625,95.5,232.688
1481309357169966,-55.3125,94.25,229.063
1481309357199979,-51.3125,93.3125,223.938
1481309357207962,-40.0625,88.75,215.688
1481309357230964,-37.125,90.375,215.375
1481309357252481,-28.25,88,212.625
1481309357267990,-24.3125,84.875,205.063
1481309357290991,-29,79.875,196.938
1481309357312011,-36,73.6875,183.125
1481309357327989,-22.5625,68.1875,159.25
1481309357351006,-7.5,55.3125,127.75
1481309357371942,-21.3125,40.625,96.0625
1481309357388920,-6.8125,31.4375,69
1481309357410920,12.375,16.9375,35.5625
1481309357431938,13.1875,1.0625,-3
1481309357447934,8.6875,-14.4375,-32.375
1481309357478888,6,-23.8125,-56.5625
1481309357491956,10.0625,-30.1875,-82.0625
1481309357507888,5.5625,-34.8125,-101.75
1481309357530887,2.1875,-40.9375,-125.563
1481309357553399,2.6875,-47,-144.375
1481309357567693,-3.375,-47.8125,-155.5
1481309357590701,-10.5625,-46.3125,-166
1481309357611707,-12.8125,-45.625,-180.938
1481309357627695,-15.625,-45.1875,-194.563
1481309357651209,-12.8125,-43.4375,-199.688
1481309357672027,-11.375,-39.375,-200.438
1481309357688025,-3,-36.8125,-205.75
1481309357711029,-0.5,-36.3125,-213.375
1481309357732101,5.3125,-37.9375,-220.375
1481309357755731,6.875,-38.1875,-232.5
1481309357771730,8,-34.625,-244.313
1481309357791801,11.6875,-25.75,-248
1481309357807783,20.5,-21.8125,-249.125
1481309357830733,12.125,-21.6875,-257.5
1481309357853246,-0.4375,-19.1875,-262.188
1481309357867804,0.9375,-17.1875,-266
1481309357890803,6.5625,-17.125,-278.188
1481309357911806,-4,-16.0625,-290.375
1481309357927805,-26,-5.0625,-292.563
1481309357951316,-44.25,3,-272.563
1481309357971941,-54.8125,-2.5625,-254.563
1481309357987941,-72.5,-8.0625,-238.125
1481309358010946,-86.5,-4.4375,-202.688
1481309358031948,-93.4375,-4.4375,-164.938
1481309358048452,-71.5625,0.9375,-125.313
1481309358070989,-51.25,5.0625,-83.5
1481309358092061,-53.9375,10.75,-44.9375
1481309358107990,-69.5625,16.875,-15.375
1481309358130037,-76.8125,18.9375,5.125
1481309358154006,-69.0625,19.5,18.375
1481309358168517,-92.5625,19.875,22.3125
1481309358190517,-133.75,22.875,22.1875
1481309358213519,-148.625,25.125,25.125
1481309358227522,-142.5,29.6875,33.0625
1481309358250538,-173.75,37.625,42.1875
1481309358273598,-222.438,44.875,47.25
1481309358310607,-254.563,48.5625,57.0625
1481309358313600,-245.625,53,67
1481309358333605,-228.188,62.6875,82.125
1481309358354117,-211.438,63.25,105.5
1481309358370257,-179.313,58,131.063
1481309358393261,-164.063,59.5,152.188
1481309358414278,-161.188,62.75,174.125
1481309358430260,-145.438,57.75,194.688
1481309358453795,-111.063,53.0625,216.375
1481309358474860,-103.688,53.3125,236.875
1481309358490805,-108.25,51.5,253.875
1481309358513809,-114.5,48.75,264.063
1481309358534890,-119.438,48.3125,269.375
1481309358550815,-131.688,53.25,276.438
1481309358573326,-148.063,56.5,283.25
1481309358594394,-167.313,52.625,286.438
1481309358610328,-168,49.875,286
1481309358633330,-157.063,47.4375,280.75
1481309358654843,-135,48.0625,269.938
1481309358670098,-118.688,46.0625,251.75
1481309358694092,-108.563,41,228.75
1481309358715100,-96.6875,34.375,201.313
1481309358730096,-84.0625,27.75,180.438
1481309358753606,-70.0625,19.75,163.313
1481309358774686,-49.625,16.8125,141.938
1481309358790619,-27.125,18.875,117.188
1481309358813617,-20.375,16.9375,96.3125
1481309358834688,-21.5625,13.1875,76.0625
1481309358857221,-15.8125,13.4375,57
1481309358873172,-4.75,18.3125,41.25
1481309358894172,-4.3125,22.0625,29.6875
1481309358910172,1.4375,23.75,19.3125
1481309358934173,1.8125,24.375,7.8125
1481309358954686,-6.25,27.25,-1.8125
1481309358978498,-19,31.3125,-5.5
1481309358992502,-17.9375,32,-8.9375
1481309359014592,-12.375,30.0625,-11.5625
1481309359030513,-10.625,28.5625,-11.5625
1481309359053095,-14.8125,27,-9.3125
1481309359074675,-14,25.625,-9.0625
1481309359090607,-15.9375,23.25,-11.875
1481309359112609,-12.6875,22.375,-13.1875
1481309359143638,-4.5,22.3125,-10.875
1481309359150639,-10.625,19.125,-11.4375
1481309359172647,-27.5,15.125,-13.9375
1481309359196649,-42.3125,15.9375,-10.625
1481309359216721,-71.9375,17.9375,-10.4375
1481309359232656,-105.313,18.25,-16.4375
1481309359256284,-124.5,27.4375,-20.5
1481309359277360,-163.188,34.5,-31.6875
1481309359293286,-205.438,22.125,-49.125
1481309359316288,-188.688,0.875,-57.4375
1481309359337290,-145.313,-11.8125,-66.125
1481309359353298,-108.875,-20.875,-82.5625
1481309359375806,-95.6875,-30.0625,-98.25
1481309359396809,-101.688,-37.5,-117.813
1481309359412810,-111.438,-39.375,-139.25
1481309359435814,-122.063,-31.6875,-156.375
1481309359457390,-125.125,-17.25,-178.938
1481309359473391,-132.625,-6.8125,-203.625
1481309359503393,-124.563,4.4375,-217.938
1481309359517466,-95.375,16.375,-232
1481309359533397,-96,21,-247.063
1481309359556440,-96.5,28.5625,-263.375
1481309359577441,-82.8125,35.5625,-278.188
1481309359592498,-69.0625,41.9375,-282.25
1481309359616445,-58.375,51.3125,-283.625
1481309359637445,-39.375,59.375,-286.125
1481309359652955,-36,61.25,-288.75
1481309359676536,-30.6875,60.9375,-285.563
1481309359698634,-28.875,55.75,-275.813
1481309359712541,-21.3125,54.6875,-264.5
1481309359735546,-27.375,54.875,-253.375
1481309359757593,-28.1875,55.5625,-238.75
1481309359772593,-30.5,62.8125,-224.438
1481309359795596,-38.375,65.4375,-210.25
1481309359817599,-48.0625,69.5,-195.563
1481309359832600,-61.5,69.5,-177.563
1481309359855606,-51.8125,73.5,-159.875
1481309359876794,-40.875,76.25,-150.75
1481309359892753,-35.625,76.5,-140.938
1481309359915758,-24.8125,75.625,-134.188
1481309359936760,-17.0625,74.125,-130.375
1481309359953282,-10.125,74.8125,-125.563
1481309359975291,-2.1875,76.4375,-120.938
1481309360004292,13.8125,79.9375,-121.688
1481309360013293,18.9375,80.3125,-122.563
1481309360035295,4.9375,84.3125,-127.875
1481309360058156,-7.1875,87.4375,-128.875
1481309360073153,10.375,81.75,-125.813
1481309360095157,27.1875,75.375,-115.688
1481309360118160,28.375,70.9375,-106.063
1481309360133158,16,67.3125,-105.125
1481309360155702,-0.5,63.5,-98.1875
1481309360178370,2.375,55.125,-84.5625
1481309360193366,3.1875,43.3125,-69.9375
1481309360215370,-4.6875,31.5625,-53.8125
1481309360244965,7.75,22.375,-32.4375
1481309360259754,24.3125,11.25,-10.75
1481309360275755,18.0625,0.375,5.1875
1481309360298757,-2,-7.6875,16.8125
1481309360319838,6,-15.625,33.0625
1481309360335760,42.4375,-21.0625,47.6875
1481309360358862,54.8125,-30.6875,59.25
1481309360379930,52.4375,-41.75,77
1481309360395861,57.3125,-53.0625,103.438
1481309360418867,82.25,-60.5625,129.625
1481309360439927,94.5625,-66.625,155.938
1481309360455378,97.1875,-68.25,185.75
1481309360478886,102.75,-68.3125,218.563
1481309360499905,130.375,-67.625,244.313
1481309360515885,152.313,-65.0625,266.313
1481309360538889,185.375,-56.6875,286.313
1481309360559543,209.75,-44.125,303.438
1481309360575474,212.938,-31,314.5
1481309360598475,215.188,-15.75,313.438
1481309360619561,208.875,2.9375,303.313
1481309360643484,189.938,19.625,297
1481309360657997,207.938,36.375,291.938
1481309360680027,250.563,56.1875,273.375
1481309360695025,271.813,77.875,247.625
1481309360726027,265.063,103.25,230
1481309360740043,232.25,114.063,218.125
1481309360755509,220.375,124.188,193.625
1481309360778114,257.5,144.813,168.625
1481309360800020,277.25,172.75,148.5
1481309360815041,204.5,184.438,122.813
1481309360838021,143.563,170.125,93.125
1481309360860110,186,172.563,77
1481309360875106,261.563,183.25,51.75
1481309360898109,232.813,195.938,25.9375
1481309360920109,157.5,186.5,2.8125
1481309360935112,169.688,180.875,-10.8125
1481309360958196,231.813,176.563,-28.375
1481309360980198,221.875,186.25,-47.75
1481309360995196,152,165.688,-69.875
1481309361018200,143.875,139.25,-87.0625
1481309361041199,178.688,108.375,-89.1875
1481309361055709,211.5,75.0625,-86.125
1481309361078053,227.875,42.125,-94.4375
1481309361101055,252.563,25.125,-116.25
1481309361122137,235.313,15.5,-145.938
1481309361138061,195.625,14.3125,-176
1481309361160715,148.875,-0.25,-208.813
1481309361181759,144.125,-9.5625,-217.938
1481309361197688,179.5,-11.1875,-216.563
1481309361220689,194.25,-14.5625,-230.188
1481309361242702,184.188,-23,-254
1481309361257799,154.938,-40,-269.25
1481309361280800,122.563,-44.6875,-281.813
1481309361301806,121.75,-47.875,-286.25
1481309361317803,131.5,-55.0625,-287.188
1481309361340804,110.5,-61.625,-288.375
1481309361361907,68.1875,-68.5,-290.625
1481309361377838,49.25,-76.9375,-295.625
1481309361400840,64.9375,-77.5625,-298.438
1481309361421914,80.9375,-74.125,-289.688
1481309361437839,54.1875,-75.5625,-272.5
1481309361460948,33.6875,-76.75,-259.938
1481309361482019,55.5,-76.9375,-238.563
1481309361497949,75.5625,-77.75,-212.5
1481309361520950,82.8125,-74.6875,-187.938
1481309361542458,79.375,-75.5,-168.25
1481309361556959,44.4375,-72.625,-148.75
1481309361571107,10.6875,-62.3125,-127.063
1481309361594032,-2.625,-48.625,-96.0625
1481309361617106,1.4375,-35.3125,-62.25
1481309361649624,-1.25,-22.6875,-34.25
1481309361654125,-15.5,-12.5,-14.6875
1481309361677228,-26.3125,-4.0625,5.75
1481309361691229,-33.9375,6,21.6875
1481309361714230,-54.375,14.5625,36.4375
1481309361737179,-69.9375,23.375,50.125
1481309361751743,-69.625,32.875,68.3125
1481309361774427,-75.9375,40.75,87.625
1481309361797496,-89.0625,45.4375,109.875
1481309361811493,-84.9375,47,133.313
1481309361833495,-58.6875,48.125,153.625
1481309361857507,-36,52.25,171.875
1481309361871084,-39.0625,55.75,190.688
1481309361894027,-68.5625,59.625,214.5
1481309361917086,-101.188,60.625,244.438
1481309361932018,-149.375,56.5,271.063
1481309361954097,-194.125,40.25,292.625
1481309361977621,-196.313,19.9375,312.938
1481309361991691,-201.813,1,325.688
1481309362013693,-222.188,-22.875,332.125
1481309362037694,-238.313,-46.5625,331.875
1481309362051706,-243.313,-69.4375,324.188
1481309362073826,-260,-92,307.313
1481309362096826,-273.25,-115.438,289.188
1481309362114756,-251.375,-138.5,270
1481309362133829,-228,-159.5,244.938
1481309362157266,-237,-175.25,211.5
1481309362171272,-248.75,-188.625,171.688
1481309362194346,-241.063,-197.188,131
1481309362217277,-223.938,-199,93.625
1481309362231346,-216.063,-204.625,55.375
1481309362254356,-206.625,-208.063,21
1481309362276999,-188.063,-207.063,-9.4375
1481309362291930,-184.125,-202.688,-37.8125
1481309362314000,-177.188,-198.625,-65.125
1481309362336932,-168.375,-191.188,-88.6875
1481309362353512,-158.188,-180.25,-109.313
1481309362374033,-148.625,-167.938,-125.438
1481309362397103,-147.125,-152.875,-140.688
1481309362412036,-141.438,-140.188,-154.313
1481309362434037,-140.438,-127,-161.875
1481309362457543,-143.938,-111.938,-174.938
1481309362471170,-152.625,-99.625,-193.938
1481309362494233,-153.25,-85,-201.438
1481309362517164,-138.375,-68.375,-206
1481309362539166,-142.875,-54.875,-220.75
1481309362554172,-152.313,-43.5,-228.813
1481309362576298,-136.813,-35.5,-227.563
1481309362599299,-117.063,-29.5,-226.313
1481309362614300,-102.875,-22.1875,-224.875
1481309362636233,-97,-13.8125,-218.438
1481309362668268,-96.6875,-3.75,-210.313
1481309362683270,-94.375,6.25,-199.438
1481309362696269,-82.0625,17.375,-195.25
1481309362719266,-71.6875,27.8125,-192.313
1481309362734272,-49.9375,36,-185.375
1481309362756778,-37,41.875,-183.375
1481309362779840,-35.3125,44.6875,-183.688
1481309362793841,-21.625,48.625,-184.25
1481309362816844,-9.3125,54,-181.813
1481309362839854,4.3125,57.25,-181.25
1481309362854281,22,60.5,-177
1481309362876699,36,61.3125,-176
1481309362899634,26.25,58.125,-178.313
1481309362913703,30.6875,58.375,-177.188
1481309362936632,51.625,66.75,-168.125
1481309362959313,51.5,65.375,-169
1481309362974241,44.8125,63.5,-171.625
1481309362996312,63.875,67.1875,-161.188
1481309363019242,74.9375,72.9375,-157
1481309363034248,57.375,75.4375,-163.188
1481309363056753,30.25,75.1875,-166.688
1481309363079762,54.75,74.5625,-155.375
1481309363093832,65.75,78.4375,-149.5
1481309363116837,45.125,75.8125,-147.813
1481309363140765,21.6875,70,-150.5
1481309363155775,18.0625,65.25,-148.875
1481309363184786,25.0625,61.3125,-136.25
1481309363199786,38.125,53.625,-119.875
1481309363213853,38.875,47.875,-110.875
1481309363236783,23.375,43.9375,-104.25
1481309363259944,8.5625,41.6875,-97.6875
1481309363273943,11.0625,38.75,-90.625
1481309363296878,10.5,30.875,-80.4375
1481309363319875,3.1875,22.3125,-64.125
1481309363333878,12.8125,13.25,-41.125
1481309363356885,16.0625,4.0625,-22.375
1481309363379962,0.375,-4.4375,-1.625
1481309363393963,-2.6875,-12.75,19.25
1481309363417033,1.0625,-21.1875,36.5
1481309363439965,8.1875,-27.4375,50.1875
1481309363454475,10.9375,-34,63.625
1481309363476570,11.4375,-40,75.0625
1481309363499569,4.1875,-48.1875,83.1875
1481309363514504,0.625,-55.0625,88.5625
1481309363536547,3.9375,-59.125,98.1875
1481309363559745,5.125,-61.9375,104.5
1481309363573751,-7.375,-64.3125,107.563
1481309363596746,-19.6875,-65.1875,109.5
1481309363619678,-26.8125,-64.6875,113
1481309363633681,-24.625,-63.375,120.625
1481309363656759,-15.0625,-61.1875,131.25
1481309363679336,-19.875,-57.1875,140.188
1481309363694338,-34.0625,-52.625,150.438
1481309363716338,-38.6875,-48.5,161.813
1481309363739340,-36.25,-42.5625,173.313
1481309363754349,-29.125,-38.375,186.063
1481309363776901,-27.1875,-33.75,196.625
1481309363799973,-39.625,-31.75,201.375
1481309363813972,-49.4375,-31.5625,202.625
1481309363836912,-53.6875,-28.625,202.563
1481309363858983,-54.0625,-24.125,207.563
1481309363874080,-50.125,-20.875,214.25
1481309363897124,-44.625,-19.5,215.813
1481309363919081,-46.125,-19.1875,215.688
1481309363934163,-53.875,-16.5,213.063
1481309363956663,-46.5,-13.375,213.063
1481309363978741,-30.5,-8.4375,217.188
1481309363993741,-19.5,-0.375,229
1481309364024676,-21.9375,9.375,231.313
1481309364038743,-30.125,18.75,225.688
1481309364057254,-36.25,26.375,223.5
1481309364076345,-31.0625,38.4375,231.25
1481309364100278,-22.5625,53.125,236.5
1481309364114351,-15.0625,61.375,229.313
1481309364136287,5.8125,66.0625,219.188
1481309364159289,26.375,86.875,222.438
1481309364174383,29.125,103.813,219.5
1481309364196454,37.25,104.313,211.938
1481309364219386,55,115.875,212.063
1481309364234385,65.4375,137.188,215.375
1481309364256977,64.8125,145.313,206.438
1481309364279550,88,135.938,198.5
1481309364295549,125.875,138.563,197.188
1481309364316550,128.063,146.938,187.875
1481309364338623,115.938,148.313,181.25
1481309364354133,121.625,133.313,168.375
1481309364376746,137.625,117.063,147.063
1481309364407657,141.25,113.5,124.313
1481309364413726,128.75,121.25,108.25
1481309364436727,119.188,115.75,96.375
1481309364459167,149.625,100.438,74.125
1481309364490037,179.625,91.25,49
1481309364496953,171.25,86.8125,30.4375
1481309364518953,135.438,89,16.75
1481309364542025,134.063,93.5625,4
1481309364556535,163.438,92.0625,-17.1875
1481309364579175,158.313,85.25,-46.4375
1481309364602106,133.563,74.8125,-67.0625
1481309364616109,124.625,66.25,-81.0625
1481309364639179,139.438,65.1875,-94.1875
1481309364662231,159.063,67.5625,-108.813
1481309364676286,160.625,68.625,-126.688
1481309364699288,134.625,59.875,-144.625
1481309364722222,120.063,53.125,-149.063
1481309364736219,139.313,53.9375,-151.688
1481309364767253,146.063,52,-160.188
1481309364781280,111.813,45.875,-176.75
1481309364796252,83.8125,43.9375,-184.75
1481309364819255,89.875,45.125,-195.313
1481309364841325,101,40.4375,-203.375
1481309364856835,89.5,31,-205.563
1481309364888358,81.75,19.8125,-210
1481309364901357,80.0625,11.125,-218.375
1481309364916425,69.4375,3,-216.938
1481309364939360,63.8125,-3.625,-209.688
1481309364961531,91.4375,-10.9375,-208.875
1481309364976532,114.563,-23.5625,-204.125
1481309364999463,124.813,-42.1875,-192.438
1481309365021464,155.563,-52.125,-176.875
1481309365036466,149.375,-42.8125,-159.813
1481309365059477,86.1875,-44.625,-136.313
1481309365082526,78.1875,-48,-123.813
1481309365096597,129.813,-46.25,-101.938
1481309365119531,131.5,-34.8125,-80.25
1481309365141529,46.9375,-34.8125,-65.8125
1481309365157040,18.8125,-35.75,-67.625
1481309365178660,46.5,-35.1875,-52.5
1481309365202589,94.5,-26.8125,-35.9375
1481309365216594,120.313,-25.875,-24.6875
1481309365240591,107.375,-23.8125,-21.8125
1481309365261697,64.3125,-22.5625,-18.25
1481309365276701,46.625,-19,-15
1481309365298770,49.0625,-11.3125,-14.0625
1481309365330712,17.625,-9.375,-9
1481309365336702,-5.25,-8.75,-6
1481309365359210,3.375,-7.6875,-2.875
1481309365381735,8.5,-3.5625,1.8125
1481309365396806,3.875,-1.1875,6.3125
1481309365418735,4.0625,-0.5,1.875
1481309365441829,2.9375,-1.625,-0.125
1481309365456745,1.625,-1.625,3.5625
1481309365479255,1.5625,-1.1875,6
1481309365501373,-0.375,0.1875,5.875
1481309365519258,-4.4375,0.3125,6.3125
1481309365539258,-1.5625,-0.375,6
1481309365561813,1.125,0.3125,4.8125
1481309365576886,-1.5625,1,3.5
1481309365598886,-3.6875,1,2.25
1481309365621889,-3,1.375,2.125
1481309365639816,1.0625,1.125,3.8125
1481309365659326,6.25,0.4375,3.4375
1481309365681927,2.75,0.5,0.9375
1481309365697904,-3.3125,0.1875,1.25
1481309365718906,-2.25,0.75,2.25
1481309365741906,-1.1875,0.875,3.0625
1481309365765048,-1.75,-0.3125,2
1481309365779078,1,-0.625,2.125
1481309365803009,1.125,-1.3125,2.25
1481309365818010,0.5625,-2.1875,-0.0625
1481309365839011,1.875,-3.3125,-0.5
1481309365862115,2.9375,-3.0625,0.875
1481309365878114,2.5,-3.375,1.5
1481309365899185,-1.0625,-2.75,0.5
1481309365921116,-3.1875,-3,-0.8125
