timestamp,x,y,z,w
1481309332361039,0.179626,0.109741,-0.212463,0.954163
1481309332384042,0.179626,0.109802,-0.212463,0.954163
1481309332399060,0.179565,0.109924,-0.212708,0.954102
1481309332421078,0.179565,0.109985,-0.212708,0.954102
1481309332435581,0.17981,0.109863,-0.212891,0.954041
1481309332460583,0.17981,0.109924,-0.212891,0.954041
1481309332481086,0.179626,0.109863,-0.212952,0.954102
1481309332495094,0.179321,0.109802,-0.212891,0.954163
1481309332547097,0.179199,0.10968,-0.21283,0.954224
1481309332547097,0.179138,0.109558,-0.212891,0.954224
1481309332561098,0.179077,0.109497,-0.213013,0.954224
1481309332577101,0.179077,0.109497,-0.213013,0.954224
1481309332600116,0.179077,0.109558,-0.213013,0.954224
1481309332621118,0.179077,0.109558,-0.213013,0.954224
1481309332637119,0.179077,0.109619,-0.213013,0.954163
1481309332660121,0.179077,0.109619,-0.213013,0.954163
1481309332681129,0.179077,0.109619,-0.213013,0.954163
1481309332697135,0.179077,0.10968,-0.213013,0.954163
1481309332720137,0.179138,0.10968,-0.213013,0.954163
1481309332741139,0.179138,0.10968,-0.213013,0.954163
1481309332757141,0.178955,0.110107,-0.213135,0.954102
1481309332780149,0.178711,0.110474,-0.213318,0.954102
1481309332801159,0.178894,0.110657,-0.213562,0.953979
1481309332817161,0.17926,0.110901,-0.213745,0.953857
1481309332840164,0.179443,0.110779,-0.213806,0.953796
1481309332861164,0.17981,0.110474,-0.213867,0.953735
1481309332877163,0.180664,0.110352,-0.213928,0.953613
1481309332899766,0.181213,0.110535,-0.21405,0.95343
1481309332920806,0.181152,0.110962,-0.214294,0.953369
1481309332938736,0.180908,0.111511,-0.2146,0.953247
1481309332959750,0.181091,0.111938,-0.214783,0.953125
1481309332981270,0.181274,0.112244,-0.215027,0.953003
1481309332997859,0.181213,0.112427,-0.215149,0.953003
1481309333019863,0.181213,0.112488,-0.215332,0.952942
1481309333042863,0.181335,0.112549,-0.215576,0.95282
1481309333057863,0.18158,0.112244,-0.215759,0.95282
1481309333080444,0.18219,0.111694,-0.215759,0.952759
1481309333102339,0.182983,0.111084,-0.215637,0.952698
1481309333117240,0.183716,0.110657,-0.215515,0.952637
1481309333140238,0.183838,0.110596,-0.215454,0.952637
1481309333162241,0.183472,0.11084,-0.215454,0.952698
1481309333177240,0.183472,0.11084,-0.215454,0.952637
1481309333199762,0.184204,0.11084,-0.215454,0.952515
1481309333221845,0.184631,0.110779,-0.215393,0.952454
1481309333236758,0.184326,0.110779,-0.215027,0.952576
1481309333259765,0.183777,0.110718,-0.2146,0.95282
1481309333281781,0.18335,0.110413,-0.21405,0.953064
1481309333297411,0.183472,0.109741,-0.213379,0.953247
1481309333319482,0.183167,0.109314,-0.212402,0.953613
1481309333341413,0.181458,0.108826,-0.211731,0.954102
1481309333357414,0.179321,0.107727,-0.211365,0.954712
1481309333379517,0.178467,0.106018,-0.211243,0.955078
1481309333401727,0.179016,0.103943,-0.211243,0.955261
1481309333416729,0.178467,0.10144,-0.21106,0.955627
1481309333439730,0.177246,0.0982666,-0.210938,0.956238
1481309333461732,0.175781,0.0942993,-0.211243,0.956848
1481309333475735,0.1745,0.0896606,-0.211975,0.957336
1481309333499265,0.174194,0.0838623,-0.212952,0.957703
1481309333522266,0.175537,0.0770874,-0.213806,0.957825
1481309333536268,0.176331,0.0699463,-0.214355,0.95813
1481309333558268,0.176147,0.0623169,-0.214478,0.958679
1481309333582293,0.175171,0.0541382,-0.21405,0.959412
1481309333596285,0.174744,0.0446777,-0.212952,0.960266
1481309333618286,0.174683,0.0344849,-0.211365,0.960999
1481309333642288,0.174194,0.0236206,-0.209045,0.961914
1481309333656289,0.172363,0.012085,-0.206238,0.963074
1481309333678290,0.170593,-0.000671387,-0.202881,0.964172
1481309333702305,0.170898,-0.0149536,-0.198547,0.964966
1481309333716305,0.173035,-0.0304565,-0.193054,0.965332
1481309333738306,0.175049,-0.046875,-0.186951,0.965515
1481309333762307,0.175171,-0.0636597,-0.180054,0.96582
1481309333776308,0.174744,-0.0812378,-0.172546,0.965942
1481309333798817,0.175537,-0.100952,-0.164001,0.965393
1481309333821820,0.177429,-0.121521,-0.154541,0.964294
1481309333836322,0.178589,-0.142029,-0.144409,0.96283
1481309333858853,0.178345,-0.162292,-0.133972,0.961182
1481309333882328,0.176697,-0.182556,-0.123474,0.959229
1481309333896330,0.174011,-0.203003,-0.112732,0.95697
1481309333918833,0.171204,-0.223755,-0.101196,0.954102
1481309333942335,0.168518,-0.244629,-0.0891113,0.950684
1481309333956337,0.165222,-0.265259,-0.0770264,0.946777
1481309333979341,0.160706,-0.285706,-0.0649414,0.942505
1481309334002343,0.154419,-0.306274,-0.0529175,0.937805
1481309334016345,0.147827,-0.327087,-0.0404663,0.932434
1481309334038849,0.141235,-0.348022,-0.0269775,0.926392
1481309334061850,0.134399,-0.368835,-0.0136719,0.919617
1481309334084854,0.12793,-0.389465,-0.000976563,0.912109
1481309334098855,0.121277,-0.410217,0.0118408,0.903809
1481309334121358,0.114258,-0.431152,0.0252075,0.894653
1481309334136363,0.106995,-0.452087,0.0386963,0.884644
1481309334158863,0.100098,-0.472778,0.0522461,0.873901
1481309334181367,0.0941162,-0.492676,0.0664063,0.862549
1481309334204369,0.0877686,-0.511841,0.0805664,0.850769
1481309334218870,0.0808716,-0.530212,0.0939941,0.838745
1481309334241373,0.0736694,-0.547791,0.106689,0.826477
1481309334264376,0.0664063,-0.564331,0.119446,0.814148
1481309334278879,0.0588989,-0.579895,0.132751,0.801636
1481309334301381,0.0516357,-0.593872,0.145447,0.789612
1481309334324884,0.0436401,-0.606934,0.15741,0.777771
1481309334338886,0.0355225,-0.619019,0.169373,0.766052
1481309334362888,0.0275269,-0.630249,0.181641,0.754333
1481309334384392,0.0180664,-0.641235,0.19342,0.74231
1481309334407395,0.00891113,-0.651123,0.205811,0.730469
1481309334421396,-0.000427246,-0.659424,0.218567,0.719238
1481309334444900,-0.0100098,-0.665344,0.231689,0.709595
1481309334458901,-0.0217285,-0.669922,0.243469,0.700989
1481309334481405,-0.0354004,-0.673462,0.253906,0.693298
1481309334504407,-0.0494995,-0.675171,0.263794,0.687073
1481309334518908,-0.062561,-0.673645,0.275574,0.682861
1481309334540917,-0.0755005,-0.668091,0.290283,0.680969
1481309334563919,-0.0886841,-0.65802,0.307556,0.68158
1481309334578920,-0.102783,-0.644165,0.325439,0.684509
1481309334600921,-0.118042,-0.628479,0.341858,0.688599
1481309334624435,-0.13562,-0.611633,0.356445,0.693115
1481309334647022,-0.153992,-0.594421,0.368286,0.698059
1481309334660944,-0.170898,-0.577087,0.378052,0.70343
1481309334683946,-0.186035,-0.560181,0.387085,0.708313
1481309334698945,-0.198914,-0.542908,0.396484,0.713074
1481309334724452,-0.207825,-0.525146,0.405396,0.718811
1481309334752932,-0.216064,-0.507202,0.41272,0.725037
1481309334758932,-0.224243,-0.488525,0.419678,0.731384
1481309334780932,-0.232239,-0.469788,0.426697,0.737061
1481309334803934,-0.240295,-0.451111,0.434326,0.741638
1481309334818935,-0.247803,-0.431824,0.442322,0.745911
1481309334849948,-0.254211,-0.411377,0.450806,0.750244
1481309334863949,-0.260864,-0.391724,0.459534,0.753174
1481309334879950,-0.266541,-0.372314,0.468872,0.75531
1481309334900951,-0.272217,-0.349487,0.479492,0.757507
1481309334924459,-0.277771,-0.324158,0.490601,0.759583
1481309334939043,-0.283508,-0.299194,0.501343,0.760742
1481309334960970,-0.289001,-0.274109,0.512573,0.76062
1481309334983970,-0.293335,-0.246887,0.523499,0.760864
1481309334998972,-0.295898,-0.217712,0.534119,0.761353
1481309335021548,-0.296509,-0.188354,0.543884,0.762085
1481309335044078,-0.296326,-0.159363,0.551819,0.763062
1481309335059058,-0.295654,-0.129761,0.558289,0.764221
1481309335082060,-0.29364,-0.100586,0.563599,0.765503
1481309335104128,-0.290344,-0.0723877,0.568115,0.766602
1481309335119109,-0.285645,-0.0436401,0.571716,0.767822
1481309335141591,-0.280518,-0.0140991,0.57373,0.769348
1481309335164661,-0.274902,0.0151367,0.573914,0.771179
1481309335178592,-0.267761,0.0444336,0.572632,0.77356
1481309335201601,-0.258301,0.0748901,0.56958,0.776611
1481309335224674,-0.248169,0.106384,0.563965,0.780396
1481309335239179,-0.241394,0.13562,0.556213,0.783508
1481309335261234,-0.236023,0.16272,0.546936,0.786499
1481309335284184,-0.227722,0.192261,0.535217,0.790344
1481309335298181,-0.218994,0.224365,0.520813,0.793945
1481309335321688,-0.212952,0.257019,0.505188,0.795776
1481309335343933,-0.208923,0.289124,0.488403,0.796326
1481309335359015,-0.204468,0.322205,0.468506,0.796753
1481309335381029,-0.198364,0.356934,0.44519,0.796814
1481309335404013,-0.192627,0.392273,0.420349,0.795166
1481309335418937,-0.187134,0.427612,0.394104,0.791626
1481309335441452,-0.1828,0.459656,0.366638,0.787903
1481309335463452,-0.178894,0.487915,0.338013,0.784607
1481309335478454,-0.175415,0.51416,0.30896,0.780579
1481309335501455,-0.170471,0.539795,0.277954,0.776001
1481309335523962,-0.16272,0.562561,0.245605,0.7724
1481309335539090,-0.154114,0.583496,0.210876,0.768921
1481309335561038,-0.151123,0.601501,0.17804,0.763916
1481309335584021,-0.152527,0.615479,0.148132,0.75885
1481309335599020,-0.151794,0.628845,0.114075,0.753967
1481309335621600,-0.150513,0.64093,0.0768433,0.748718
1481309335644126,-0.151489,0.650146,0.0397339,0.743469
1481309335659162,-0.155273,0.656616,0.00372314,0.737976
1481309335681129,-0.161194,0.661194,-0.0322876,0.731934
1481309335712128,-0.168884,0.663574,-0.0692139,0.725464
1481309335719134,-0.176575,0.664063,-0.105591,0.71875
1481309335741296,-0.184998,0.662292,-0.141479,0.712097
1481309335763297,-0.193787,0.658936,-0.178589,0.704529
1481309335778296,-0.204468,0.653931,-0.214539,0.695984
1481309335801302,-0.217163,0.647278,-0.247925,0.687317
1481309335823890,-0.229492,0.638733,-0.280579,0.67865
1481309335838731,-0.24115,0.627686,-0.314392,0.670044
1481309335861665,-0.251465,0.614258,-0.34906,0.661438
1481309335883732,-0.261108,0.599854,-0.38031,0.653687
1481309335898735,-0.272644,0.585327,-0.407288,0.645874
1481309335921745,-0.284363,0.568665,-0.435303,0.63739
1481309335943336,-0.292664,0.548096,-0.464111,0.631287
1481309335958342,-0.296021,0.523132,-0.492981,0.629028
1481309335981409,-0.295715,0.495605,-0.522522,0.627563
1481309336003410,-0.298035,0.467651,-0.548889,0.625427
1481309336018340,-0.299072,0.435425,-0.574219,0.625488
1481309336040855,-0.291321,0.394714,-0.601746,0.630249
1481309336064088,-0.274719,0.347473,-0.629578,0.638306
1481309336078857,-0.257629,0.298889,-0.652466,0.646973
1481309336100928,-0.240051,0.248291,-0.67041,0.656738
1481309336123970,-0.216125,0.192749,-0.685547,0.667969
1481309336138647,-0.188416,0.134888,-0.696411,0.679199
1481309336161580,-0.159973,0.0772705,-0.701111,0.690552
1481309336183581,-0.131226,0.0206299,-0.7005,0.701172
1481309336200581,-0.105164,-0.0321045,-0.694458,0.711121
1481309336221593,-0.0834961,-0.0790405,-0.684204,0.720215
1481309336243677,-0.0667725,-0.11969,-0.671021,0.728638
1481309336267676,-0.0527954,-0.156738,-0.655884,0.736511
1481309336281678,-0.0422363,-0.189758,-0.638428,0.744751
1481309336303749,-0.0339966,-0.218933,-0.618713,0.753723
1481309336326260,-0.0266113,-0.24646,-0.597229,0.762817
1481309336340854,-0.020874,-0.271912,-0.574524,0.771729
1481309336363855,-0.0175781,-0.294983,-0.550903,0.780518
1481309336387787,-0.0158081,-0.315552,-0.526123,0.789551
1481309336401789,-0.0162354,-0.333557,-0.500916,0.798462
1481309336423868,-0.0204468,-0.348816,-0.475586,0.807312
1481309336445968,-0.0253906,-0.362976,-0.448975,0.816101
1481309336460899,-0.0308228,-0.375488,-0.421204,0.825012
1481309336483914,-0.0379639,-0.386292,-0.392639,0.833801
1481309336505902,-0.0474854,-0.395447,-0.363892,0.84198
1481309336520902,-0.0587769,-0.403198,-0.335083,0.849487
1481309336545422,-0.0716553,-0.409546,-0.305664,0.856567
1481309336566423,-0.0853271,-0.414856,-0.274902,0.863159
1481309336581424,-0.0994263,-0.419373,-0.243408,0.868896
1481309336603425,-0.113708,-0.422791,-0.211365,0.873901
1481309336626432,-0.128418,-0.424744,-0.179077,0.878052
1481309336641439,-0.143799,-0.425537,-0.146912,0.881287
1481309336663439,-0.159729,-0.42511,-0.115112,0.883484
1481309336686524,-0.17395,-0.42334,-0.0824585,0.885254
1481309336701515,-0.185059,-0.420532,-0.0476074,0.886902
1481309336724024,-0.194031,-0.416504,-0.0110474,0.888123
1481309336748044,-0.201294,-0.410828,0.0267944,0.888794
1481309336761044,-0.208618,-0.402405,0.0656738,0.888916
1481309336784091,-0.216187,-0.392517,0.105469,0.887756
1481309336806118,-0.221558,-0.382874,0.145569,0.884949
1481309336824141,-0.22229,-0.371826,0.186401,0.881775
1481309336844219,-0.220398,-0.355408,0.227539,0.879333
1481309336866221,-0.217957,-0.33374,0.267395,0.877258
1481309336882236,-0.215149,-0.310791,0.304138,0.87439
1481309336904223,-0.213074,-0.285767,0.337463,0.871216
1481309336926303,-0.209595,-0.256409,0.369202,0.868286
1481309336941413,-0.202698,-0.223755,0.399414,0.865601
1481309336963412,-0.192505,-0.187988,0.427002,0.863281
1481309336986484,-0.180908,-0.148926,0.450256,0.861572
1481309337001486,-0.167969,-0.108887,0.469543,0.859863
1481309337025496,-0.154053,-0.0697632,0.485474,0.857666
1481309337047516,-0.140747,-0.0318604,0.496826,0.855713
1481309337061518,-0.128967,0.00714111,0.504028,0.853943
1481309337083589,-0.116028,0.0460815,0.507507,0.852478
1481309337106586,-0.098877,0.0841064,0.507507,0.851807
1481309337121548,-0.0789795,0.123718,0.503723,0.851257
1481309337143591,-0.0606689,0.164551,0.497314,0.849609
1481309337166619,-0.0440063,0.201843,0.487915,0.848022
1481309337182592,-0.0238037,0.235596,0.474854,0.847534
1481309337203667,-0.00140381,0.268433,0.458496,0.847107
1481309337226600,0.0199585,0.301758,0.440002,0.845459
1481309337243108,0.0402832,0.333801,0.418762,0.843506
1481309337264113,0.0612183,0.36377,0.393555,0.84198
1481309337286186,0.081543,0.392151,0.364624,0.840515
1481309337303110,0.0953979,0.417908,0.335754,0.838745
1481309337332192,0.102417,0.439514,0.307556,0.837646
1481309337346763,0.112732,0.460205,0.274719,0.836609
1481309337362713,0.127075,0.481506,0.236755,0.834167
1481309337383717,0.13208,0.499695,0.202148,0.831787
1481309337407718,0.130005,0.51416,0.169739,0.830566
1481309337422716,0.132568,0.52948,0.133057,0.827209
1481309337444059,0.135071,0.544189,0.0939941,0.822632
1481309337468981,0.128784,0.556641,0.057312,0.818665
1481309337483982,0.117065,0.567444,0.0210571,0.814697
1481309337504057,0.105164,0.57782,-0.0177002,0.809143
1481309337526571,0.0947876,0.58551,-0.0592041,0.802856
1481309337542945,0.0822144,0.590454,-0.0996704,0.796631
1481309337564024,0.06604,0.59314,-0.138367,0.790283
1481309337586016,0.0498047,0.593079,-0.179321,0.783264
1481309337602946,0.0342407,0.591248,-0.221252,0.77478
1481309337624027,0.0167236,0.587524,-0.260437,0.76593
1481309337654775,-0.00195313,0.580994,-0.297852,0.757446
1481309337662770,-0.0179443,0.571167,-0.335754,0.748779
1481309337683843,-0.0317383,0.557617,-0.372742,0.740967
1481309337706776,-0.0390625,0.539307,-0.411316,0.733765
1481309337722852,-0.041626,0.516907,-0.450073,0.72699
1481309337743739,-0.0444946,0.491699,-0.485352,0.721558
1481309337766740,-0.0446777,0.461182,-0.520264,0.717346
1481309337782738,-0.0380249,0.422791,-0.556152,0.714478
1481309337803811,-0.0204468,0.375488,-0.592285,0.712524
1481309337826319,0.000915527,0.322693,-0.624268,0.711426
1481309337843410,0.020813,0.268494,-0.649231,0.711304
1481309337863405,0.0411377,0.213257,-0.669495,0.710327
1481309337887410,0.0630493,0.15564,-0.684265,0.709656
1481309337902441,0.0891724,0.0938721,-0.692505,0.709656
1481309337923917,0.115906,0.031311,-0.692749,0.711121
1481309337946530,0.139526,-0.0279541,-0.686829,0.712708
1481309337962436,0.156128,-0.079895,-0.677429,0.714417
1481309337983488,0.166199,-0.124329,-0.665405,0.717041
1481309338006510,0.173218,-0.164063,-0.650696,0.720886
1481309338030448,0.178589,-0.200439,-0.633545,0.725647
1481309338051842,0.180237,-0.232117,-0.614868,0.731812
1481309338065844,0.178589,-0.259705,-0.595032,0.739319
1481309338082773,0.174377,-0.28418,-0.573853,0.747986
1481309338111803,0.169067,-0.306519,-0.551147,0.757446
1481309338126295,0.162048,-0.325867,-0.527527,0.767639
1481309338142862,0.152222,-0.341858,-0.504333,0.778198
1481309338164863,0.139832,-0.355164,-0.481934,0.788696
1481309338185863,0.126892,-0.367065,-0.459351,0.798828
1481309338209867,0.11438,-0.377625,-0.435852,0.808899
1481309338225449,0.101501,-0.38623,-0.411987,0.819031
1481309338245957,0.0878296,-0.393066,-0.387878,0.829041
1481309338262957,0.0726929,-0.398804,-0.363525,0.838745
1481309338284959,0.0571289,-0.40387,-0.338196,0.848083
1481309338306033,0.0405884,-0.407654,-0.312317,0.857056
1481309338328969,0.0230103,-0.410095,-0.286621,0.86554
1481309338345530,0.00537109,-0.411743,-0.261353,0.872986
1481309338366603,-0.0130615,-0.411926,-0.236572,0.879883
1481309338388552,-0.0333252,-0.410706,-0.213745,0.885742
1481309338405533,-0.0530396,-0.408875,-0.194031,0.890137
1481309338426615,-0.0684814,-0.407288,-0.176758,0.893372
1481309338449120,-0.0793457,-0.405334,-0.161011,0.896362
1481309338471121,-0.0900269,-0.401978,-0.14624,0.899414
1481309338486122,-0.10083,-0.398376,-0.133606,0.901794
1481309338525740,-0.109192,-0.395752,-0.12207,0.903625
1481309338528240,-0.11438,-0.394226,-0.111938,0.904968
1481309338546871,-0.118103,-0.39325,-0.10376,0.905884
1481309338568942,-0.121704,-0.392517,-0.0979614,0.906372
1481309338584875,-0.123596,-0.391541,-0.0929565,0.907043
1481309338608872,-0.124451,-0.390686,-0.0889282,0.907715
1481309338628885,-0.124573,-0.390198,-0.0854492,0.908264
1481309338645040,-0.12384,-0.389648,-0.0825806,0.908813
1481309338666112,-0.124146,-0.389038,-0.0800171,0.909302
1481309338689044,-0.124146,-0.388794,-0.0776978,0.909607
1481309338705045,-0.123596,-0.38855,-0.0754395,0.909973
1481309338729124,-0.122437,-0.388184,-0.0731812,0.910461
1481309338749147,-0.121643,-0.387817,-0.0705566,0.91095
1481309338766147,-0.12207,-0.387878,-0.0685425,0.911011
1481309338786219,-0.123901,-0.388306,-0.0678101,0.910645
1481309338802150,-0.125854,-0.388611,-0.0674438,0.910278
1481309338825229,-0.127075,-0.388977,-0.0667114,0.909973
1481309338846321,-0.127686,-0.389526,-0.0665894,0.909668
1481309338869256,-0.127808,-0.390198,-0.0673218,0.909302
1481309338885254,-0.128418,-0.390747,-0.0692749,0.908875
1481309338914256,-0.130493,-0.391357,-0.072876,0.90802
1481309338928834,-0.133118,-0.39209,-0.0786133,0.906799
1481309338945471,-0.135315,-0.392578,-0.0864868,0.905579
1481309338966486,-0.137939,-0.392944,-0.0969238,0.903992
1481309338988542,-0.140808,-0.393311,-0.111328,0.901672
1481309339005475,-0.140137,-0.393738,-0.130371,0.899109
1481309339028053,-0.138245,-0.393127,-0.152527,0.896118
1481309339048577,-0.137451,-0.391113,-0.176392,0.892761
1481309339065575,-0.136108,-0.387573,-0.201904,0.889099
1481309339087579,-0.133423,-0.382446,-0.230103,0.884827
1481309339108578,-0.131287,-0.375549,-0.260986,0.879578
1481309339125585,-0.131409,-0.365723,-0.293823,0.873291
1481309339147607,-0.131042,-0.354004,-0.327026,0.866394
1481309339168680,-0.128601,-0.340942,-0.360229,0.858765
1481309339185609,-0.12561,-0.325928,-0.392578,0.85083
1481309339207611,-0.124512,-0.307251,-0.424622,0.842468
1481309339229120,-0.125793,-0.284912,-0.45636,0.833496
1481309339244777,-0.128479,-0.260193,-0.487244,0.823608
1481309339267776,-0.130249,-0.23468,-0.516113,0.813416
1481309339288846,-0.131165,-0.207886,-0.542175,0.803528
1481309339304808,-0.13092,-0.178711,-0.566101,0.794006
1481309339327787,-0.133057,-0.144409,-0.589478,0.783569
1481309339357875,-0.140503,-0.104065,-0.611633,0.771606
1481309339364875,-0.151489,-0.0597534,-0.630432,0.758972
1481309339387874,-0.160522,-0.015686,-0.644165,0.747681
1481309339408875,-0.165039,0.0262451,-0.653564,0.738159
1481309339425385,-0.167053,0.067688,-0.659485,0.729797
1481309339447956,-0.170166,0.110718,-0.661865,0.721619
1481309339469027,-0.174377,0.155518,-0.660034,0.713928
1481309339484958,-0.178467,0.200317,-0.654053,0.707275
1481309339507959,-0.180176,0.242676,-0.644226,0.702576
1481309339528970,-0.178101,0.282227,-0.631714,0.699707
1481309339545043,-0.174255,0.320984,-0.616577,0.697449
1481309339568044,-0.172241,0.359924,-0.59729,0.69574
1481309339589102,-0.169006,0.396606,-0.574707,0.695557
1481309339605044,-0.161621,0.429321,-0.550293,0.697693
1481309339629559,-0.150757,0.458496,-0.524292,0.701538
1481309339649181,-0.138,0.485413,-0.496582,0.706238
1481309339665106,-0.125671,0.51001,-0.466248,0.711792
1481309339688108,-0.114258,0.532532,-0.432007,0.718811
1481309339709110,-0.0992432,0.552795,-0.394592,0.727173
1481309339725241,-0.0793457,0.569885,-0.355896,0.736328
1481309339747360,-0.0601807,0.582642,-0.315308,0.746582
1481309339768361,-0.0444336,0.591125,-0.271545,0.758179
1481309339785367,-0.0272827,0.595886,-0.227844,0.769531
1481309339807366,-0.0057373,0.597534,-0.186401,0.779785
1481309339828872,0.0198975,0.596375,-0.146545,0.788879
1481309339844879,0.039917,0.592163,-0.103149,0.798157
1481309339867882,0.0551758,0.583679,-0.0545044,0.808228
1481309339888884,0.0713501,0.572388,-0.00543213,0.816772
1481309339904884,0.0862427,0.557983,0.0424805,0.824219
1481309339927898,0.0964966,0.540588,0.092041,0.830566
1481309339948666,0.103149,0.520874,0.140808,0.835571
1481309339964668,0.110291,0.49884,0.186401,0.839111
1481309339987669,0.117249,0.474426,0.229797,0.841614
1481309340009672,0.12146,0.446777,0.271484,0.84375
1481309340031683,0.121826,0.415649,0.310974,0.845947
1481309340047895,0.120117,0.382385,0.346924,0.8479
1481309340069897,0.117798,0.348083,0.379211,0.849121
1481309340091017,0.111633,0.311096,0.409058,0.850464
1481309340107903,0.10144,0.270935,0.435669,0.852295
1481309340130410,0.0906372,0.230591,0.457947,0.853699
1481309340151489,0.0793457,0.190613,0.475891,0.854858
1481309340167419,0.0672607,0.150391,0.490173,0.855896
1481309340189491,0.0545654,0.10968,0.50061,0.856873
1481309340211419,0.0415039,0.0686646,0.507568,0.857788
1481309340226929,0.0273438,0.0279541,0.510437,0.858948
1481309340249436,0.0123901,-0.0115967,0.509277,0.860413
1481309340272497,-0.00170898,-0.0488281,0.504639,0.861877
1481309340287438,-0.0147095,-0.0838013,0.497498,0.86322
1481309340309440,-0.0272827,-0.11676,0.487671,0.864685
1481309340331959,-0.0396729,-0.148132,0.475098,0.866455
1481309340348460,-0.0519409,-0.177856,0.4599,0.868347
1481309340369530,-0.0640259,-0.206543,0.4422,0.870422
1481309340392461,-0.0754395,-0.233154,0.422607,0.872498
1481309340406525,-0.085022,-0.256409,0.402222,0.874756
1481309340429472,-0.0939331,-0.276855,0.380554,0.877319
1481309340452484,-0.102478,-0.295532,0.357422,0.880005
1481309340466550,-0.108521,-0.312622,0.333984,0.882568
1481309340489550,-0.113342,-0.329102,0.310242,0.884644
1481309340511482,-0.117981,-0.345154,0.285828,0.886108
1481309340526991,-0.121338,-0.360596,0.26062,0.887268
1481309340550498,-0.123718,-0.375,0.234619,0.888245
1481309340571501,-0.123657,-0.388,0.208679,0.88916
1481309340586572,-0.120972,-0.400024,0.182495,0.889954
1481309340609501,-0.118164,-0.411255,0.155151,0.890381
1481309340632010,-0.115112,-0.421509,0.126709,0.890503
1481309340646590,-0.111694,-0.430847,0.0977783,0.890076
1481309340670518,-0.108582,-0.439087,0.0682983,0.889221
1481309340700530,-0.106018,-0.446045,0.0372314,0.887939
1481309340706522,-0.105164,-0.450989,0.00427246,0.886292
1481309340729536,-0.105469,-0.453552,-0.0300293,0.88446
1481309340751634,-0.105103,-0.454712,-0.0654907,0.881958
1481309340766545,-0.1026,-0.453918,-0.101196,0.879333
1481309340789544,-0.0984497,-0.451355,-0.136475,0.876343
1481309340811548,-0.0927734,-0.446655,-0.171387,0.87323
1481309340827057,-0.0889282,-0.439697,-0.206421,0.869568
1481309340857191,-0.0849609,-0.431335,-0.24176,0.865051
1481309340872188,-0.0803833,-0.421326,-0.277466,0.85968
1481309340887262,-0.0773315,-0.40863,-0.3125,0.854065
1481309340911190,-0.0754395,-0.393311,-0.346741,0.848145
1481309340932198,-0.0736084,-0.375671,-0.380432,0.841858
1481309340948710,-0.072998,-0.35498,-0.414429,0.834839
1481309340969781,-0.0745239,-0.330566,-0.448242,0.827148
1481309340991716,-0.0764771,-0.303406,-0.48053,0.819275
1481309341006714,-0.0784912,-0.272949,-0.511353,0.811096
1481309341029727,-0.0831299,-0.238159,-0.540344,0.802795
1481309341051831,-0.0906372,-0.198975,-0.56781,0.793579
1481309341068739,-0.098999,-0.158325,-0.592102,0.783936
1481309341096827,-0.102417,-0.120728,-0.611267,0.775452
1481309341111741,-0.0985107,-0.0869751,-0.62616,0.768555
1481309341128756,-0.0915527,-0.0527344,-0.638245,0.762573
1481309341149765,-0.0876465,-0.0144653,-0.64856,0.755981
1481309341171765,-0.0886841,0.0265503,-0.656677,0.748474
1481309341188769,-0.0883789,0.0654907,-0.661865,0.741516
1481309341209767,-0.0812988,0.100525,-0.664063,0.736389
1481309341232279,-0.0713501,0.136169,-0.662903,0.732788
1481309341248785,-0.0650635,0.174561,-0.658508,0.729126
1481309341269804,-0.0631104,0.213562,-0.651062,0.725586
1481309341291788,-0.0612183,0.25061,-0.640625,0.723206
1481309341314820,-0.0570068,0.286499,-0.627808,0.721436
1481309341337389,-0.0535889,0.323853,-0.610474,0.720825
1481309341351912,-0.0519409,0.360657,-0.589539,0.720886
1481309341374902,-0.0501099,0.394287,-0.565979,0.722229
1481309341389903,-0.0471191,0.425537,-0.539001,0.725342
1481309341413898,-0.0418701,0.454651,-0.508301,0.730164
1481309341428406,-0.0335083,0.481018,-0.474182,0.736633
1481309341449918,-0.0245972,0.504822,-0.436646,0.744202
1481309341471988,-0.0166016,0.524841,-0.396362,0.753113
1481309341488918,-0.00793457,0.539612,-0.354065,0.763733
1481309341509003,0.00408936,0.549255,-0.311218,0.775513
1481309341531927,0.0185547,0.555237,-0.268188,0.787048
1481309341554013,0.0335083,0.558105,-0.223267,0.798401
1481309341568933,0.052124,0.55835,-0.178711,0.808411
1481309341591934,0.0664063,0.554993,-0.13147,0.818665
1481309341607937,0.076355,0.546753,-0.0809326,0.829834
1481309341629943,0.085022,0.535583,-0.0300903,0.8396
1481309341652021,0.095459,0.521301,0.0184937,0.847778
1481309341667950,0.109253,0.504883,0.0632935,0.853821
1481309341689956,0.119019,0.485229,0.107666,0.859497
1481309341711957,0.122009,0.461792,0.152649,0.865112
1481309341734460,0.124451,0.436768,0.194214,0.869446
1481309341748970,0.129761,0.411255,0.231323,0.872009
1481309341771970,0.132874,0.38385,0.266357,0.874084
1481309341794970,0.133301,0.354004,0.2995,0.875854
1481309341808972,0.134888,0.32373,0.329651,0.876465
1481309341831981,0.138245,0.294006,0.355774,0.876221
1481309341855035,0.138672,0.261841,0.380371,0.876038
1481309341869060,0.134827,0.227051,0.403931,0.875793
1481309341891991,0.130005,0.191284,0.424744,0.875244
1481309341915026,0.125732,0.155396,0.441467,0.874695
1481309341929502,0.122681,0.120361,0.453979,0.874207
1481309341952080,0.1203,0.0856934,0.463745,0.873535
1481309341974014,0.118835,0.0510254,0.47113,0.872498
1481309341991011,0.118652,0.0168457,0.476135,0.871155
1481309342012053,0.118713,-0.0166626,0.478577,0.869751
1481309342034522,0.117188,-0.050293,0.478638,0.868652
1481309342051103,0.115417,-0.0830688,0.476379,0.867615
1481309342072031,0.114441,-0.113831,0.471252,0.867065
1481309342094041,0.113708,-0.142944,0.463989,0.86676
1481309342111032,0.114929,-0.170532,0.4552,0.866272
1481309342132044,0.117188,-0.196655,0.445618,0.865417
1481309342155054,0.119202,-0.221375,0.435608,0.864258
1481309342171053,0.120789,-0.244568,0.424683,0.86322
1481309342192054,0.122925,-0.266235,0.41272,0.862305
1481309342214128,0.125122,-0.286743,0.40033,0.861267
1481309342231062,0.12854,-0.305542,0.388,0.859924
1481309342252070,0.133484,-0.322571,0.375732,0.858398
1481309342274075,0.138428,-0.338867,0.363464,0.856628
1481309342291072,0.14209,-0.355774,0.350403,0.854614
1481309342312074,0.146729,-0.371948,0.336975,0.852356
1481309342334584,0.152405,-0.387024,0.323669,0.849792
1481309342351054,0.156982,-0.401306,0.310242,0.847351
1481309342372126,0.161438,-0.414429,0.297363,0.844788
1481309342394075,0.166748,-0.425964,0.285034,0.842285
1481309342411060,0.173462,-0.435852,0.272766,0.839966
1481309342432070,0.180237,-0.444824,0.259644,0.837952
1481309342454079,0.18512,-0.453491,0.244995,0.836609
1481309342477080,0.189148,-0.461548,0.229248,0.835815
1481309342493080,0.194153,-0.467957,0.213684,0.835205
1481309342514082,0.200989,-0.471985,0.19928,0.8349
1481309342531089,0.209412,-0.474304,0.185364,0.834778
1481309342551783,0.218445,-0.475464,0.170837,0.834839
1481309342574714,0.227295,-0.47583,0.155762,0.835266
1481309342590716,0.234619,-0.475403,0.140259,0.836182
1481309342611716,0.241211,-0.474243,0.125488,0.837341
1481309342634725,0.247192,-0.472534,0.111938,0.838501
1481309342657919,0.252747,-0.470032,0.100281,0.839722
1481309342671923,0.258362,-0.467346,0.0905762,0.840576
1481309342693919,0.263428,-0.464905,0.0823364,0.841248
1481309342710922,0.268311,-0.462952,0.0757446,0.84137
1481309342731959,0.271973,-0.461182,0.0709839,0.841614
1481309342754061,0.274353,-0.459778,0.067688,0.841858
1481309342770994,0.275269,-0.45874,0.0654297,0.842285
1481309342791994,0.276184,-0.458069,0.06427,0.842468
1481309342814996,0.276245,-0.457764,0.0639038,0.842651
1481309342830500,0.275146,-0.457947,0.0637207,0.842896
1481309342851508,0.274963,-0.45813,0.0641479,0.842834
1481309342867509,0.275818,-0.458008,0.0648193,0.84259
1481309342890511,0.276428,-0.457458,0.0648804,0.842651
1481309342911537,0.276611,-0.456543,0.064209,0.84314
1481309342928021,0.277405,-0.454956,0.0631714,0.843811
1481309342950280,0.277954,-0.452454,0.0615845,0.845093
1481309342973281,0.277527,-0.448425,0.0595093,0.847534
1481309342994355,0.275818,-0.442505,0.0556641,0.85144
1481309343010282,0.274597,-0.435425,0.0499268,0.855835
1481309343033292,0.274292,-0.427002,0.0431519,0.860535
1481309343054807,0.273376,-0.416199,0.0351563,0.866455
1481309343069802,0.271057,-0.402832,0.0258789,0.873779
1481309343092872,0.269165,-0.388,0.0158691,0.881287
1481309343114802,0.268921,-0.37085,0.00494385,0.888855
1481309343130321,0.267029,-0.350769,-0.0078125,0.897522
1481309343153595,0.263245,-0.330505,-0.0214233,0.906067
1481309343174597,0.262268,-0.311279,-0.0337524,0.912781
1481309343190600,0.264099,-0.292175,-0.0448608,0.91803
1481309343213600,0.265686,-0.271301,-0.0559082,0.923401
1481309343234603,0.266235,-0.25,-0.0678101,0.928406
1481309343250114,0.266663,-0.228821,-0.0808105,0.932678
1481309343273118,0.265076,-0.208191,-0.0935669,0.936829
1481309343294185,0.263062,-0.187805,-0.105286,0.94043
1481309343310115,0.262085,-0.167908,-0.116516,0.943115
1481309343333688,0.262817,-0.148254,-0.127808,0.944763
1481309343354268,0.262756,-0.128174,-0.139832,0.945984
1481309343370201,0.260254,-0.108093,-0.152161,0.947327
1481309343393201,0.257019,-0.0889893,-0.164246,0.948181
1481309343414200,0.256348,-0.0704346,-0.176208,0.947754
1481309343430722,0.254944,-0.050354,-0.18866,0.947021
1481309343453229,0.247864,-0.0281372,-0.201416,0.947144
1481309343474233,0.237061,-0.00769043,-0.213989,0.947571
1481309343490232,0.232605,0.0109253,-0.225891,0.945862
1481309343513234,0.228882,0.0294189,-0.23645,0.943787
1481309343534742,0.224609,0.0456543,-0.245361,0.941895
1481309343550248,0.2229,0.0585327,-0.252686,0.939697
1481309343573251,0.221863,0.0687256,-0.257751,0.937866
1481309343594323,0.220642,0.0758667,-0.26062,0.936768
1481309343610254,0.220764,0.0805664,-0.261902,0.936035
1481309343633760,0.221252,0.0831299,-0.262146,0.935608
1481309343654337,0.220947,0.0844727,-0.261841,0.935669
1481309343670268,0.220032,0.0848999,-0.26123,0.935974
1481309343693268,0.219299,0.0845947,-0.260315,0.936462
1481309343714355,0.218933,0.0836182,-0.259155,0.936951
1481309343730359,0.21875,0.0819702,-0.25769,0.9375
1481309343752888,0.217041,0.0807495,-0.256104,0.938477
1481309343774890,0.21283,0.0802002,-0.2547,0.93988
1481309343789890,0.207031,0.0800781,-0.253296,0.941528
1481309343812889,0.202271,0.0797119,-0.251892,0.942993
1481309343835899,0.198792,0.0794067,-0.250427,0.944153
1481309343850374,0.195251,0.0789795,-0.249146,0.945251
1481309343873374,0.191345,0.0790405,-0.247986,0.94635
1481309343896377,0.186584,0.0795288,-0.247009,0.94751
1481309343910377,0.18042,0.0804443,-0.246277,0.948853
1481309343932956,0.172241,0.0817871,-0.245544,0.950439
1481309343955491,0.161499,0.0840454,-0.244873,0.952271
1481309343977466,0.148071,0.0874634,-0.244141,0.954346
1481309343992466,0.135193,0.09021,-0.243652,0.956116
1481309344015477,0.126221,0.0919189,-0.243225,0.957275
1481309344036975,0.120239,0.0929565,-0.24292,0.958008
1481309344052484,0.114624,0.093811,-0.242859,0.958679
1481309344076485,0.110107,0.0942993,-0.243164,0.959045
1481309344097491,0.109253,0.0939331,-0.243713,0.959045
1481309344112489,0.112305,0.0927124,-0.24408,0.95874
1481309344135994,0.119446,0.0900269,-0.244324,0.958069
1481309344156457,0.130371,0.0859985,-0.244446,0.95697
1481309344172454,0.142578,0.0811768,-0.244202,0.95575
1481309344195460,0.153748,0.0765991,-0.243042,0.954651
1481309344217456,0.166199,0.0716553,-0.241638,0.953308
1481309344240962,0.18042,0.0656738,-0.239502,0.951721
1481309344255474,0.193909,0.0599365,-0.237122,0.950012
1481309344277471,0.202942,0.055481,-0.234619,0.949036
1481309344292509,0.20874,0.0518188,-0.232483,0.948486
1481309344315485,0.21344,0.048584,-0.230713,0.948059
1481309344337056,0.216309,0.0466919,-0.228882,0.947937
1481309344352565,0.214417,0.0463867,-0.227661,0.948669
1481309344383565,0.210999,0.0464478,-0.227051,0.949585
1481309344396636,0.20813,0.0464478,-0.226685,0.950317
1481309344412565,0.206726,0.0465088,-0.226074,0.950745
1481309344436167,0.205566,0.0467529,-0.225586,0.951111
1481309344456692,0.202026,0.0475464,-0.225281,0.951904
1481309344472691,0.19873,0.0479736,-0.225098,0.952637
1481309344495691,0.198303,0.0479736,-0.225159,0.952698
1481309344516764,0.200012,0.0474854,-0.224915,0.952454
1481309344532775,0.202209,0.0466309,-0.224731,0.952026
1481309344555784,0.204041,0.0457153,-0.224304,0.951782
1481309344576856,0.205322,0.0449219,-0.223938,0.95166
1481309344592784,0.205811,0.0445557,-0.22345,0.95166
1481309344615786,0.206238,0.0441284,-0.223083,0.95166
1481309344637374,0.209167,0.0427246,-0.222595,0.951233
1481309344652881,0.210876,0.0425415,-0.222046,0.950989
1481309344675882,0.201782,0.0465088,-0.221497,0.952881
1481309344696964,0.175476,0.0553589,-0.220154,0.957886
1481309344712887,0.126465,0.0686646,-0.219177,0.964966
1481309344735436,0.057373,0.0877075,-0.215454,0.970825
1481309344756642,-0.0211182,0.110535,-0.208191,0.971558
1481309344772640,-0.0891724,0.128662,-0.202271,0.966736
1481309344795639,-0.12439,0.137085,-0.200867,0.961975
1481309344816710,-0.121521,0.135864,-0.202026,0.962219
1481309344832648,-0.0808105,0.12616,-0.204163,0.967407
1481309344855156,-0.0218506,0.112366,-0.205078,0.971985
1481309344878158,0.0455322,0.0942993,-0.204834,0.973145
1481309344899228,0.116028,0.0733643,-0.202515,0.969604
1481309344915159,0.17865,0.0526123,-0.198975,0.962097
1481309344938743,0.220459,0.0403442,-0.195129,0.954773
1481309344959254,0.236084,0.0360107,-0.192322,0.951782
1481309344975254,0.208252,0.0441284,-0.194031,0.957581
1481309344998254,0.150513,0.0588989,-0.197266,0.966919
1481309345019327,0.0805664,0.0762939,-0.197144,0.97406
1481309345035271,0.0126343,0.0931396,-0.194519,0.976379
1481309345058276,-0.0454102,0.105835,-0.193298,0.974304
1481309345079347,-0.0759277,0.111755,-0.194824,0.971497
1481309345095281,-0.0704346,0.110291,-0.197021,0.971619
1481309345118279,-0.0238647,0.0984497,-0.195801,0.975342
1481309345139791,0.0477295,0.0788574,-0.192932,0.976868
1481309345155300,0.129272,0.0545044,-0.188782,0.971924
1481309345178298,0.205627,0.0310059,-0.18512,0.960449
1481309345199404,0.256836,0.0192261,-0.182861,0.948792
1481309345215299,0.276978,0.0176392,-0.181763,0.943359
1481309345238811,0.237549,0.0311279,-0.1875,0.952576
1481309345259321,0.163025,0.0524902,-0.195007,0.965698
1481309345275321,0.0779419,0.0771484,-0.19989,0.973633
1481309345298321,-0.000366211,0.0997925,-0.20282,0.974121
1481309345319393,-0.0648193,0.117615,-0.203247,0.969849
1481309345335333,-0.107483,0.128601,-0.202087,0.964905
1481309345358920,-0.119019,0.131287,-0.202454,0.963074
1481309345379926,-0.0812988,0.122559,-0.203064,0.968018
1481309345394930,-0.0128174,0.105652,-0.20166,0.973633
1481309345417938,0.0706787,0.0821533,-0.197754,0.974182
1481309345439508,0.156677,0.0548706,-0.191589,0.967285
1481309345455513,0.233826,0.0281982,-0.184204,0.954224
1481309345478517,0.286438,0.0144653,-0.178772,0.941101
1481309345499612,0.30835,0.0128174,-0.17981,0.934021
1481309345515521,0.267029,0.0292969,-0.192383,0.943787
1481309345538528,0.176941,0.0547485,-0.204041,0.961243
1481309345559539,0.0719604,0.081665,-0.208862,0.971863
1481309345575541,-0.0222778,0.10553,-0.208252,0.972107
1481309345598542,-0.0983887,0.122986,-0.202576,0.966492
1481309345619642,-0.146362,0.13269,-0.198914,0.9599
1481309345635650,-0.161987,0.134338,-0.200623,0.956787
1481309345658661,-0.137085,0.127686,-0.203247,0.960999
1481309345679731,-0.0814819,0.113953,-0.204895,0.968689
1481309345703662,-0.00543213,0.0938721,-0.205444,0.974121
1481309345717662,0.0814209,0.067688,-0.203369,0.973328
1481309345739756,0.170227,0.0371094,-0.19812,0.964539
1481309345754832,0.257202,0.00445557,-0.191162,0.947205
1481309345777764,0.337402,-0.026001,-0.182373,0.923096
1481309345800764,0.403809,-0.0498657,-0.17395,0.896729
1481309345814839,0.450073,-0.0650024,-0.169617,0.874268
1481309345837847,0.473816,-0.0709839,-0.169922,0.861145
1481309345860855,0.479431,-0.0714111,-0.172546,0.857422
1481309345881940,0.473755,-0.067627,-0.176941,0.859985
1481309345897859,0.463562,-0.0622559,-0.181396,0.865051
1481309345920860,0.450317,-0.0558472,-0.185425,0.871582
1481309345941942,0.43689,-0.0499878,-0.18866,0.878052
1481309345957948,0.426819,-0.0457764,-0.191101,0.88269
1481309345980949,0.42218,-0.043457,-0.192017,0.884827
1481309346002021,0.421082,-0.0421143,-0.191467,0.885559
1481309346017951,0.420105,-0.0404663,-0.190674,0.88623
1481309346040962,0.414978,-0.0375977,-0.190369,0.888855
1481309346062040,0.406494,-0.0341797,-0.190735,0.892822
1481309346077971,0.399658,-0.0311279,-0.190063,0.896179
1481309346100975,0.393494,-0.0279541,-0.188232,0.899353
1481309346121979,0.385925,-0.024231,-0.18634,0.903137
1481309346138003,0.378235,-0.0210571,-0.184265,0.906921
1481309346160838,0.371887,-0.0186157,-0.181702,0.910095
1481309346181906,0.366638,-0.0162354,-0.17865,0.912842
1481309346197841,0.358582,-0.0134277,-0.176208,0.916565
1481309346220842,0.349426,-0.0110474,-0.175354,0.920288
1481309346242427,0.343384,-0.00946045,-0.17511,0.922668
1481309346257832,0.340637,-0.00817871,-0.174561,0.923767
1481309346280833,0.341309,-0.00762939,-0.17395,0.923645
1481309346301903,0.342468,-0.00720215,-0.173767,0.923279
1481309346317837,0.341553,-0.00622559,-0.1745,0.923462
1481309346341418,0.339783,-0.00518799,-0.175415,0.92395
1481309346361997,0.337219,-0.00396729,-0.175842,0.924805
1481309346377929,0.333618,-0.00231934,-0.17572,0.926147
1481309346400930,0.330017,-0.000915527,-0.174927,0.927612
1481309346421936,0.327209,0.00012207,-0.172974,0.928955
1481309346438045,0.322937,0.00183105,-0.169128,0.931152
1481309346460636,0.314148,0.00482178,-0.162415,0.935364
1481309346489641,0.299683,0.00915527,-0.153137,0.941589
1481309346497636,0.279846,0.0144043,-0.141174,0.949463
1481309346520639,0.256531,0.0198975,-0.126038,0.958008
1481309346542210,0.233887,0.024292,-0.107422,0.965942
1481309346558115,0.212708,0.0282593,-0.0847778,0.973022
1481309346581116,0.191895,0.0325317,-0.0581055,0.979126
1481309346603125,0.172791,0.038147,-0.0279541,0.983765
1481309346618118,0.151917,0.0440674,0.00585938,0.987366
1481309346640699,0.127625,0.0499268,0.0429077,0.989624
1481309346661963,0.103638,0.0558472,0.0822754,0.989624
1481309346677897,0.0799561,0.0635376,0.125122,0.986816
1481309346699899,0.0584106,0.0714722,0.169434,0.98114
1481309346722902,0.039856,0.0794067,0.211792,0.973206
1481309346737922,0.0223999,0.0880737,0.25238,0.963318
1481309346759955,0.00231934,0.0970459,0.292114,0.951416
1481309346782962,-0.0178223,0.104858,0.329163,0.938232
1481309346804962,-0.0357056,0.112244,0.361389,0.924927
1481309346819959,-0.0482788,0.118774,0.387817,0.91272
1481309346843467,-0.0551147,0.125977,0.408386,0.902344
1481309346864236,-0.0568848,0.133362,0.424316,0.893799
1481309346880233,-0.0599976,0.139038,0.435913,0.887085
1481309346903233,-0.0596313,0.142822,0.443481,0.882751
1481309346924238,-0.0559082,0.145935,0.448303,0.880066
1481309346940257,-0.0518799,0.1474,0.452148,0.878113
1481309346963518,-0.0487671,0.146423,0.4552,0.876892
1481309346984590,-0.0445557,0.145142,0.457092,0.876343
1481309347008518,-0.0385742,0.144958,0.459106,0.875549
1481309347023519,-0.0319214,0.144897,0.461731,0.874451
1481309347044532,-0.0255127,0.145142,0.464111,0.873413
1481309347060586,-0.0202637,0.145264,0.46637,0.872314
1481309347083591,-0.0165405,0.144958,0.468933,0.871033
1481309347104693,-0.0153198,0.143433,0.47168,0.869812
1481309347120595,-0.0188599,0.139343,0.473328,0.869568
1481309347143625,-0.0306396,0.129456,0.473145,0.87085
1481309347164131,-0.0584106,0.105652,0.472412,0.873047
1481309347180131,-0.0977173,0.069397,0.471313,0.873718
1481309347211134,-0.145325,0.0301514,0.467285,0.871521
1481309347224135,-0.189697,0.000610352,0.457458,0.868713
1481309347240693,-0.218445,-0.0119629,0.452332,0.864563
1481309347253835,-0.212341,-0.00164795,0.452087,0.866272
1481309347276810,-0.188354,0.0180664,0.452454,0.87146
1481309347307735,-0.173035,0.0309448,0.452148,0.87439
1481309347313735,-0.160522,0.0406494,0.45105,0.876953
1481309347336769,-0.136963,0.0559692,0.452087,0.879578
1481309347359141,-0.104431,0.0776978,0.45697,0.879822
1481309347374163,-0.0653076,0.104431,0.465637,0.876343
1481309347396223,-0.0238037,0.131042,0.473755,0.870483
1481309347419140,0.0163574,0.154175,0.476868,0.865173
1481309347434151,0.0480957,0.17334,0.476929,0.860291
1481309347456658,0.0675049,0.187317,0.476807,0.85614
1481309347479737,0.0721436,0.193176,0.480225,0.852478
1481309347493672,0.0494995,0.176392,0.488464,0.853088
1481309347516679,0.012146,0.146362,0.497314,0.85498
1481309347539777,-0.0280151,0.113342,0.502625,0.856567
1481309347554321,-0.0657349,0.0827637,0.503967,0.857178
1481309347576391,-0.104858,0.0523071,0.503357,0.856018
1481309347599414,-0.147583,0.0205078,0.497559,0.854492
1481309347613338,-0.174988,0,0.485229,0.856628
1481309347636337,-0.185791,-0.00537109,0.474426,0.860413
1481309347659659,-0.181396,0.00250244,0.469849,0.863831
1481309347673586,-0.156311,0.0223999,0.468567,0.869141
1481309347696675,-0.115112,0.0525513,0.471558,0.872681
1481309347719629,-0.0640869,0.086853,0.476929,0.872253
1481309347734188,-0.0100708,0.119995,0.483582,0.866943
1481309347759229,0.0356445,0.143005,0.487427,0.860596
1481309347779262,0.0697021,0.159729,0.486633,0.855957
1481309347794234,0.0955811,0.175171,0.482666,0.852722
1481309347816299,0.108643,0.187195,0.482666,0.848572
1481309347839766,0.0845947,0.169861,0.493225,0.848877
1481309347854296,0.0420532,0.138855,0.503052,0.851929
1481309347876323,-0.00292969,0.107361,0.508911,0.854004
1481309347899369,-0.0471191,0.0769043,0.511902,0.854248
1481309347922307,-0.0880127,0.0450439,0.510376,0.854187
1481309347936311,-0.128113,0.0114136,0.502258,0.855042
1481309347959857,-0.162598,-0.0150757,0.487732,0.857544
1481309347973820,-0.185974,-0.02771,0.478577,0.857666
1481309347996823,-0.191284,-0.0239258,0.477722,0.857056
1481309348019880,-0.161072,0.00189209,0.479187,0.862732
1481309348034343,-0.114624,0.0385742,0.482361,0.867554
1481309348056516,-0.0603638,0.0811768,0.48999,0.865784
1481309348079436,-0.00579834,0.114624,0.501709,0.857361
1481309348094440,0.0323486,0.129395,0.508972,0.850342
1481309348125517,0.0769653,0.154846,0.505859,0.845032
1481309348139057,0.116699,0.188721,0.497253,0.838684
1481309348161646,0.125977,0.202698,0.498962,0.833069
1481309348176649,0.0928345,0.174194,0.509644,0.837402
1481309348198660,0.0532837,0.14624,0.516113,0.842224
1481309348221581,0.013916,0.124573,0.522827,0.84314
1481309348236589,-0.0308838,0.0960693,0.526001,0.844421
1481309348258879,-0.0777588,0.0604248,0.522583,0.846802
1481309348281879,-0.121704,0.0219727,0.515442,0.8479
1481309348295881,-0.169617,-0.00933838,0.505737,0.845764
1481309348318885,-0.20813,-0.0244141,0.495117,0.84314
1481309348342324,-0.222717,-0.019104,0.491333,0.841797
1481309348355853,-0.199585,0.00701904,0.488708,0.849243
1481309348378853,-0.170715,0.0341187,0.479919,0.859802
1481309348401927,-0.146606,0.0617676,0.478271,0.863647
1481309348415946,-0.109375,0.0969238,0.484741,0.862305
1481309348447442,-0.0599976,0.125305,0.490295,0.860352
1481309348462448,0.000976563,0.157104,0.488098,0.858459
1481309348477494,0.0606689,0.188477,0.481018,0.854004
1481309348499447,0.0894165,0.201172,0.477417,0.850586
1481309348522450,0.0795898,0.187073,0.480591,0.852966
1481309348536455,0.0568237,0.166992,0.487244,0.855225
1481309348559183,0.0404663,0.154297,0.494141,0.854553
1481309348582182,0.0274658,0.147217,0.502686,0.851318
1481309348596184,0.00274658,0.128052,0.512817,0.848877
1481309348619185,-0.0408936,0.0924072,0.516113,0.850464
1481309348642196,-0.0877686,0.0481567,0.51239,0.852844
1481309348656376,-0.138,0.00244141,0.506958,0.850769
1481309348678448,-0.180176,-0.0249634,0.497192,0.848328
1481309348702398,-0.205444,-0.0332642,0.491089,0.845825
1481309348716451,-0.189575,-0.0134888,0.493103,0.848938
1481309348738962,-0.150513,0.0143433,0.489929,0.858521
1481309348761551,-0.120056,0.0358887,0.482666,0.86676
1481309348776553,-0.100098,0.0574341,0.482971,0.86792
1481309348798583,-0.0621338,0.0896606,0.494995,0.862
1481309348822486,-0.0239258,0.109436,0.505554,0.855469
1481309348836563,0.0200806,0.131958,0.50885,0.850403
1481309348858748,0.0791626,0.16803,0.50061,0.845459
1481309348881748,0.109192,0.190613,0.492432,0.842163
1481309348896706,0.0947266,0.178711,0.495361,0.844727
1481309348918750,0.0688477,0.155518,0.500183,0.848999
1481309348950338,0.0595093,0.147461,0.503784,0.848999
1481309348956268,0.0620117,0.153198,0.510498,0.843811
1481309348979270,0.0467529,0.1427,0.521606,0.839844
1481309349002345,0.00408936,0.109436,0.53009,0.840759
1481309349016343,-0.0526123,0.0627441,0.531006,0.843323
1481309349039352,-0.0953369,0.0214844,0.529724,0.842468
1481309349062349,-0.140991,-0.0142212,0.526672,0.838135
1481309349076421,-0.164917,-0.0241089,0.524109,0.835144
1481309349099360,-0.162964,-0.0109253,0.531128,0.83136
1481309349122350,-0.1297,0.015625,0.539001,0.832031
1481309349136432,-0.104614,0.0326538,0.541016,0.833801
1481309349159004,-0.107422,0.0310059,0.540649,0.83374
1481309349182107,-0.125305,0.0193481,0.53833,0.833069
1481309349198007,-0.132568,0.0140381,0.536926,0.832947
1481309349219078,-0.126465,0.0170288,0.537476,0.833496
1481309349242088,-0.118774,0.0209351,0.537537,0.834534
1481309349256113,-0.115479,0.0218506,0.53717,0.835205
1481309349279193,-0.115601,0.0196533,0.536743,0.83551
1481309349302185,-0.117188,0.0164185,0.535828,0.835938
1481309349316185,-0.118225,0.0140381,0.534607,0.83667
1481309349339123,-0.117371,0.0139771,0.531921,0.83844
1481309349362246,-0.115479,0.0153809,0.527893,0.841248
1481309349376177,-0.114746,0.0158691,0.522705,0.844604
1481309349399177,-0.115601,0.0142822,0.514771,0.849304
1481309349422179,-0.116821,0.0125122,0.503174,0.85614
1481309349436767,-0.115295,0.0147095,0.48761,0.865234
1481309349458837,-0.113098,0.0189819,0.467957,0.876221
1481309349481846,-0.11145,0.0245972,0.444214,0.88855
1481309349496777,-0.11145,0.0303345,0.415894,0.901978
1481309349518862,-0.112854,0.0362549,0.382874,0.916138
1481309349541358,-0.114624,0.0430908,0.345581,0.930359
1481309349556379,-0.116211,0.0508423,0.305176,0.943787
1481309349579382,-0.116882,0.0596924,0.263,0.955811
1481309349601452,-0.115723,0.0688477,0.218994,0.96637
1481309349616464,-0.112122,0.078064,0.173523,0.975281
1481309349638895,-0.1073,0.0863647,0.127197,0.982239
1481309349661576,-0.103516,0.0936279,0.0803223,0.986938
1481309349676577,-0.0994873,0.100708,0.0335083,0.989319
1481309349707545,-0.0948486,0.107727,-0.0123291,0.989563
1481309349721589,-0.0871582,0.11377,-0.0580444,0.987976
1481309349736589,-0.0758057,0.118347,-0.103333,0.984619
1481309349758689,-0.0620728,0.121643,-0.147095,0.979614
1481309349781727,-0.0471191,0.123718,-0.189636,0.972839
1481309349796733,-0.0321045,0.125305,-0.231506,0.964172
1481309349818742,-0.0170898,0.126221,-0.273621,0.953308
1481309349841752,-0.0010376,0.126892,-0.316711,0.939941
1481309349856771,0.0144043,0.127563,-0.359802,0.924133
1481309349878779,0.0292358,0.128113,-0.400879,0.906616
1481309349901793,0.0465698,0.126953,-0.440613,0.88739
1481309349916803,0.0665283,0.124146,-0.479248,0.866272
1481309349939282,0.0861816,0.119629,-0.515991,0.843811
1481309349960871,0.102783,0.114441,-0.549438,0.821228
1481309349978867,0.116516,0.109924,-0.581177,0.797852
1481309349998940,0.125488,0.107727,-0.612183,0.773193
1481309350021874,0.134521,0.104492,-0.64209,0.747498
1481309350036464,0.146545,0.097229,-0.671021,0.720276
1481309350059107,0.158569,0.0878906,-0.698486,0.692261
1481309350081108,0.167236,0.0794067,-0.724487,0.66394
1481309350096118,0.173218,0.0719604,-0.747559,0.637146
1481309350119110,0.179382,0.0638428,-0.768127,0.611328
1481309350141621,0.18512,0.0548706,-0.78717,0.585693
1481309350156142,0.187927,0.0474854,-0.803833,0.562439
1481309350180144,0.186157,0.0456543,-0.816956,0.543945
1481309350201214,0.183411,0.0458374,-0.827087,0.529297
1481309350216216,0.185913,0.0401001,-0.83374,0.518311
1481309350239157,0.189331,0.0324707,-0.838257,0.510254
1481309350261252,0.190125,0.02771,-0.840942,0.50592
1481309350276253,0.185791,0.0307007,-0.842773,0.504272
1481309350299257,0.17688,0.039856,-0.843994,0.504761
1481309350321190,0.167847,0.0495605,-0.844299,0.506531
1481309350344766,0.158752,0.0591431,-0.843689,0.50946
1481309350359298,0.149902,0.0664063,-0.84314,0.512146
1481309350381299,0.140808,0.0722046,-0.842834,0.514343
1481309350396380,0.130676,0.0805664,-0.842102,0.517029
1481309350419310,0.121765,0.0870361,-0.840637,0.520508
1481309350441882,0.12085,0.0819092,-0.839233,0.523804
1481309350459428,0.135559,0.0526733,-0.837402,0.526917
1481309350479435,0.170166,-0.00842285,-0.831604,0.528625
1481309350501501,0.220337,-0.101807,-0.815369,0.525574
1481309350517437,0.278809,-0.219788,-0.780212,0.515015
1481309350542014,0.338074,-0.342346,-0.72467,0.493347
1481309350561542,0.382507,-0.438843,-0.661987,0.472107
1481309350577533,0.403381,-0.489624,-0.61615,0.466797
1481309350598536,0.408325,-0.502197,-0.600159,0.470032
1481309350621541,0.398926,-0.474304,-0.622314,0.478149
1481309350644119,0.366272,-0.411011,-0.667847,0.500916
1481309350658835,0.32373,-0.328308,-0.71637,0.523682
1481309350681837,0.275696,-0.236389,-0.757507,0.54248
1481309350704842,0.219666,-0.136169,-0.788696,0.557861
1481309350718910,0.151489,-0.0272827,-0.806335,0.571045
1481309350741421,0.0789185,0.0783081,-0.808289,0.578186
1481309350764209,0.0376587,0.140198,-0.804138,0.576416
1481309350779154,0.0514526,0.113708,-0.807922,0.575928
1481309350809212,0.107117,0.0194702,-0.812866,0.572205
1481309350824142,0.182007,-0.103149,-0.800293,0.561951
1481309350847151,0.253479,-0.227173,-0.767639,0.54303
1481309350861242,0.313965,-0.34137,-0.718445,0.518433
1481309350884174,0.360779,-0.437927,-0.660461,0.49176
1481309350899248,0.391602,-0.504578,-0.609009,0.470276
1481309350921178,0.407898,-0.532471,-0.584229,0.457031
1481309350944255,0.40564,-0.523865,-0.591736,0.459229
1481309350958763,0.385376,-0.47644,-0.629456,0.477783
1481309350981773,0.346497,-0.400269,-0.680237,0.507019
1481309351003765,0.297058,-0.305481,-0.729858,0.534546
1481309351018835,0.231079,-0.191711,-0.770691,0.562073
1481309351041846,0.154846,-0.0719604,-0.794678,0.58252
1481309351064440,0.083313,0.0360107,-0.802063,0.590271
1481309351078511,0.0426636,0.0999146,-0.80249,0.586731
1481309351101512,0.0554199,0.0804443,-0.806702,0.582886
1481309351123516,0.109924,-0.0067749,-0.81012,0.575867
1481309351139022,0.183899,-0.123413,-0.796204,0.562988
1481309351161632,0.255432,-0.23877,-0.763306,0.543213
1481309351183629,0.318604,-0.348328,-0.713013,0.518433
1481309351198632,0.369873,-0.445679,-0.651062,0.49054
1481309351221561,0.40686,-0.517822,-0.591064,0.465881
1481309351244069,0.425232,-0.550964,-0.559509,0.450073
1481309351258746,0.420959,-0.544495,-0.56427,0.455994
1481309351281748,0.405334,-0.506104,-0.596375,0.473206
1481309351303750,0.373291,-0.443604,-0.642517,0.501099
1481309351318819,0.331543,-0.366699,-0.688171,0.531067
1481309351341329,0.280579,-0.277588,-0.727722,0.560913
1481309351364053,0.220581,-0.179932,-0.759216,0.585266
1481309351379055,0.157776,-0.0844116,-0.780334,0.599243
1481309351401055,0.11084,-0.0111084,-0.790894,0.601746
1481309351423998,0.108459,-0.00793457,-0.794556,0.597412
1481309351440567,0.149292,-0.0737305,-0.791504,0.588074
1481309351461088,0.215942,-0.178162,-0.771851,0.570862
1481309351484159,0.283264,-0.286316,-0.733765,0.54718
1481309351500090,0.336548,-0.380249,-0.684509,0.523071
1481309351521097,0.37616,-0.458679,-0.631348,0.499512
1481309351544172,0.407166,-0.520691,-0.579834,0.476318
1481309351566267,0.427002,-0.559387,-0.541443,0.460022
1481309351581267,0.434692,-0.571289,-0.526367,0.455627
1481309351604316,0.430786,-0.557434,-0.534668,0.466675
1481309351620200,0.417542,-0.518982,-0.567322,0.484253
1481309351641710,0.390564,-0.460754,-0.613586,0.508606
1481309351664309,0.350952,-0.383057,-0.663208,0.538757
1481309351680263,0.29718,-0.288696,-0.708313,0.571533
1481309351701333,0.233093,-0.18866,-0.743591,0.597595
1481309351725264,0.168884,-0.0953369,-0.764771,0.614441
1481309351740344,0.115601,-0.0196533,-0.773621,0.622681
1481309351760922,0.0821533,0.0216675,-0.776672,0.624207
1481309351783924,0.0837402,0.0078125,-0.778259,0.622253
1481309351816859,0.118286,-0.0546875,-0.777954,0.614685
1481309351820861,0.177307,-0.150818,-0.765686,0.599609
1481309351843937,0.238586,-0.256592,-0.737,0.578003
1481309351860531,0.289673,-0.355286,-0.695984,0.552673
1481309351881601,0.330627,-0.442078,-0.647583,0.525269
1481309351903534,0.364441,-0.514099,-0.595825,0.497925
1481309351920534,0.388428,-0.566345,-0.549622,0.475769
1481309351941543,0.398682,-0.593567,-0.523132,0.463806
1481309351963658,0.399963,-0.597717,-0.519531,0.461365
1481309351980587,0.397278,-0.585022,-0.533264,0.464294
1481309352001660,0.393127,-0.565002,-0.555847,0.466125
1481309352023705,0.390869,-0.549744,-0.572388,0.466309
1481309352040672,0.392761,-0.543152,-0.578003,0.465515
1481309352061707,0.392822,-0.540344,-0.579407,0.466858
1481309352083776,0.39093,-0.535828,-0.582825,0.469482
1481309352100705,0.389099,-0.529358,-0.588196,0.47168
1481309352123709,0.388123,-0.524597,-0.591736,0.473267
1481309352144288,0.389038,-0.522522,-0.592896,0.47345
1481309352160810,0.389648,-0.520386,-0.594055,0.473755
1481309352181824,0.388611,-0.515869,-0.597595,0.475098
1481309352203816,0.387451,-0.510803,-0.601685,0.47644
1481309352219886,0.387207,-0.507385,-0.60376,0.477539
1481309352241821,0.386353,-0.505249,-0.604614,0.479492
1481309352263842,0.384949,-0.50354,-0.605347,0.481506
1481309352279849,0.383118,-0.502136,-0.60614,0.483459
1481309352301848,0.381836,-0.501709,-0.605957,0.485046
1481309352323915,0.381348,-0.502502,-0.604797,0.486145
1481309352340353,0.380615,-0.503113,-0.60376,0.487305
1481309352362885,0.379822,-0.503784,-0.602966,0.48822
1481309352383957,0.379639,-0.505005,-0.601624,0.48877
1481309352399907,0.380005,-0.506531,-0.599854,0.489075
1481309352422888,0.380737,-0.50824,-0.597839,0.489258
1481309352444470,0.381042,-0.509399,-0.596252,0.489685
1481309352460044,0.381042,-0.510437,-0.594849,0.490295
1481309352482990,0.382385,-0.513184,-0.591919,0.48999
1481309352503996,0.383911,-0.517151,-0.587585,0.489807
1481309352526064,0.385376,-0.521179,-0.582825,0.490112
1481309352543072,0.386169,-0.525879,-0.577209,0.491089
1481309352564167,0.387268,-0.532288,-0.568909,0.49292
1481309352586168,0.388977,-0.542725,-0.555054,0.496033
1481309352603097,0.389038,-0.55658,-0.536072,0.501465
1481309352624099,0.386719,-0.570923,-0.515503,0.508667
1481309352646680,0.380859,-0.584351,-0.494812,0.518311
1481309352663202,0.371887,-0.597778,-0.47229,0.530396
1481309352684276,0.360657,-0.612305,-0.447021,0.543274
1481309352706205,0.347351,-0.627502,-0.419495,0.556458
1481309352722211,0.331238,-0.6427,-0.39093,0.56958
1481309352744285,0.311646,-0.656616,-0.362366,0.583496
1481309352766377,0.289612,-0.6698,-0.33197,0.597717
1481309352782380,0.266174,-0.682251,-0.298828,0.611877
1481309352804309,0.24115,-0.693115,-0.26416,0.625854
1481309352826382,0.211243,-0.700928,-0.229553,0.641357
1481309352842902,0.178955,-0.70575,-0.195374,0.657043
1481309352863494,0.145142,-0.707397,-0.162842,0.672302
1481309352886489,0.111206,-0.705627,-0.132568,0.687134
1481309352902435,0.0796509,-0.700195,-0.098938,0.702515
1481309352923500,0.0477295,-0.691589,-0.0653076,0.717773
1481309352946539,0.0174561,-0.680725,-0.0349731,0.731506
1481309352962563,-0.0109863,-0.667847,-0.0112915,0.74408
1481309352986565,-0.031189,-0.656128,0.00604248,0.753967
1481309353006637,-0.041687,-0.647766,0.0204468,0.760376
1481309353028568,-0.0391235,-0.647095,0.0213013,0.761108
1481309353044079,-0.0289917,-0.651306,0.0043335,0.75824
1481309353066725,-0.00817871,-0.658264,-0.0186768,0.752502
1481309353082654,0.0252075,-0.667297,-0.0456543,0.742981
1481309353103657,0.0651855,-0.677185,-0.0799561,0.728516
1481309353126659,0.105957,-0.684387,-0.124939,0.710449
1481309353150666,0.147522,-0.686462,-0.175293,0.690125
1481309353163779,0.196838,-0.68573,-0.219055,0.665588
1481309353186712,0.258301,-0.683838,-0.253601,0.633484
1481309353202710,0.319946,-0.676392,-0.287415,0.597961
1481309353223783,0.374329,-0.665466,-0.317688,0.562256
1481309353246720,0.421021,-0.649658,-0.349487,0.527771
1481309353262741,0.457092,-0.629456,-0.382874,0.49823
1481309353285742,0.481506,-0.611389,-0.411438,0.474365
1481309353314814,0.49884,-0.599976,-0.428589,0.455566
1481309353322743,0.50769,-0.596436,-0.433655,0.445496
1481309353345762,0.509338,-0.599609,-0.429504,0.44342
1481309353366166,0.502502,-0.606079,-0.419617,0.451721
1481309353383064,0.486755,-0.615723,-0.404175,0.469666
1481309353405064,0.463684,-0.628662,-0.381958,0.493835
1481309353426135,0.433472,-0.643188,-0.352966,0.523254
1481309353443147,0.397278,-0.658508,-0.317566,0.554688
1481309353465677,0.355225,-0.671143,-0.278809,0.587952
1481309353486682,0.305908,-0.678528,-0.240295,0.623108
1481309353510681,0.251709,-0.680481,-0.202271,0.657776
1481309353525684,0.19458,-0.676575,-0.163757,0.691101
1481309353546693,0.137695,-0.667603,-0.122314,0.721375
1481309353562712,0.0844116,-0.654846,-0.078064,0.746948
1481309353585713,0.0322266,-0.639343,-0.0360718,0.767395
1481309353606762,-0.0172119,-0.62262,-0.00152588,0.782349
1481309353622714,-0.0522461,-0.6073,0.0285645,0.792236
1481309353646227,-0.0772095,-0.594604,0.0489502,0.798767
1481309353666821,-0.0963745,-0.586121,0.0619507,0.802063
1481309353682811,-0.0997314,-0.585327,0.0634766,0.802124
1481309353704806,-0.0856934,-0.594116,0.0485229,0.79834
1481309353734876,-0.0599365,-0.606995,0.0262451,0.791992
1481309353749317,-0.0256348,-0.622253,-0.00201416,0.78241
1481309353764893,0.0148315,-0.639404,-0.0363159,0.767883
1481309353786852,0.0561523,-0.655823,-0.0791016,0.748657
1481309353802847,0.0996094,-0.667236,-0.124512,0.7276
1481309353824858,0.145203,-0.672852,-0.166199,0.706116
1481309353846864,0.195557,-0.675293,-0.202087,0.681824
1481309353862939,0.251404,-0.675537,-0.235107,0.652039
1481309353884949,0.305115,-0.671692,-0.269592,0.618896
1481309353906022,0.347473,-0.660522,-0.308411,0.589783
1481309353922941,0.382202,-0.646973,-0.344299,0.562805
1481309353945452,0.417603,-0.633972,-0.375488,0.531677
1481309353966093,0.4422,-0.619568,-0.40387,0.507446
1481309353983023,0.457458,-0.609741,-0.420715,0.491882
1481309354005023,0.466675,-0.60675,-0.42627,0.481995
1481309354026096,0.466797,-0.61084,-0.420959,0.481384
1481309354043039,0.456787,-0.618286,-0.407776,0.492737
1481309354065112,0.439148,-0.627808,-0.388672,0.511841
1481309354086230,0.415222,-0.637634,-0.365356,0.536255
1481309354103115,0.385254,-0.647339,-0.338013,0.564148
1481309354125116,0.350098,-0.657471,-0.306396,0.592712
1481309354146268,0.310974,-0.66571,-0.272278,0.621277
1481309354162386,0.268127,-0.672119,-0.235168,0.648865
1481309354185315,0.221802,-0.675354,-0.19812,0.674866
1481309354206315,0.173035,-0.673523,-0.161987,0.700073
1481309354230317,0.124268,-0.667908,-0.124817,0.723083
1481309354245326,0.0754395,-0.658813,-0.0866699,0.743469
1481309354268388,0.0310059,-0.646057,-0.0452881,0.761353
1481309354284388,-0.0109253,-0.629822,-0.0045166,0.776611
1481309354306387,-0.0527344,-0.61377,0.0275269,0.787231
1481309354327393,-0.0858154,-0.602844,0.0471191,0.791809
1481309354349903,-0.105225,-0.596436,0.0622559,0.793335
1481309354373475,-0.115112,-0.595459,0.0651245,0.792419
1481309354387481,-0.117249,-0.598572,0.059082,0.790222
1481309354409547,-0.100708,-0.606873,0.0450439,0.787109
1481309354424551,-0.074707,-0.616638,0.0265503,0.783203
1481309354447492,-0.0460815,-0.627563,-0.000183105,0.777161
1481309354469514,-0.013916,-0.639099,-0.0357056,0.768188
1481309354484582,0.022644,-0.649658,-0.0767822,0.756042
1481309354507516,0.062561,-0.657654,-0.120056,0.741089
1481309354538027,0.106201,-0.662292,-0.164917,0.723083
1481309354544529,0.152649,-0.662231,-0.211731,0.702393
1481309354567035,0.202148,-0.65509,-0.259705,0.680115
1481309354590038,0.253418,-0.640442,-0.308472,0.656067
1481309354605037,0.300537,-0.618164,-0.362488,0.629395
1481309354627116,0.343384,-0.589966,-0.419922,0.598083
1481309354650052,0.377747,-0.555237,-0.478455,0.565796
1481309354664712,0.399658,-0.519836,-0.530396,0.537354
1481309354686649,0.414001,-0.489136,-0.575989,0.507507
1481309354709723,0.426941,-0.459106,-0.613953,0.479553
1481309354731716,0.436401,-0.438599,-0.63855,0.457703
1481309354747154,0.442078,-0.429688,-0.650024,0.444336
1481309354769224,0.443542,-0.432129,-0.648376,0.442871
1481309354785164,0.442688,-0.43512,-0.645508,0.445007
1481309354807234,0.438904,-0.434631,-0.645142,0.449768
1481309354829259,0.434448,-0.430054,-0.647339,0.455322
1481309354844673,0.430603,-0.423279,-0.651733,0.459045
1481309354866861,0.42627,-0.415344,-0.657043,0.462646
1481309354889790,0.422363,-0.406677,-0.662292,0.466431
1481309354904791,0.42041,-0.401672,-0.664856,0.468933
1481309354926863,0.419495,-0.400146,-0.664612,0.471436
1481309354949803,0.416626,-0.397278,-0.664734,0.476135
1481309354964379,0.411865,-0.391724,-0.666016,0.483032
1481309354987314,0.406921,-0.38446,-0.666809,0.491882
1481309355009419,0.401184,-0.375244,-0.66687,0.50354
1481309355024382,0.391846,-0.362366,-0.667419,0.519348
1481309355047324,0.387268,-0.353149,-0.663818,0.533569
1481309355069335,0.387207,-0.349365,-0.655151,0.546631
1481309355084403,0.387451,-0.344421,-0.644836,0.561646
1481309355107404,0.384644,-0.334839,-0.635376,0.579834
1481309355137847,0.381042,-0.323242,-0.625366,0.599365
1481309355144847,0.37677,-0.313416,-0.612549,0.620117
1481309355168353,0.374084,-0.304321,-0.596985,0.641113
1481309355189426,0.372864,-0.295654,-0.578613,0.662415
1481309355204366,0.374634,-0.288696,-0.558044,0.681824
1481309355227361,0.379822,-0.282166,-0.535095,0.69989
1481309355251369,0.38623,-0.273743,-0.511169,0.717346
1481309355264987,0.393677,-0.266663,-0.486023,0.733276
1481309355286925,0.407593,-0.262878,-0.457581,0.745239
1481309355309922,0.419861,-0.257874,-0.428223,0.757507
1481309355325922,0.426819,-0.25061,-0.401794,0.770447
1481309355347432,0.432922,-0.243408,-0.378418,0.781128
1481309355369441,0.441406,-0.237061,-0.359131,0.787354
1481309355385441,0.449951,-0.227051,-0.346497,0.791138
1481309355407489,0.458862,-0.21698,-0.336304,0.793213
1481309355429548,0.466797,-0.207886,-0.327881,0.794556
1481309355446951,0.47406,-0.199402,-0.321228,0.795166
1481309355467464,0.47998,-0.191589,-0.316223,0.795532
1481309355489463,0.482178,-0.18396,-0.312927,0.797302
1481309355506462,0.481506,-0.176758,-0.310608,0.800232
1481309355534534,0.479858,-0.170715,-0.308533,0.803345
1481309355549979,0.479065,-0.166321,-0.305786,0.805786
1481309355566483,0.477722,-0.162231,-0.303406,0.808289
1481309355587488,0.473755,-0.157166,-0.302002,0.812134
1481309355609557,0.466125,-0.150696,-0.301392,0.817993
1481309355625561,0.452759,-0.141174,-0.302002,0.826965
1481309355649002,0.432068,-0.127747,-0.304871,0.83905
1481309355669517,0.406311,-0.111389,-0.308777,0.852661
1481309355693513,0.375732,-0.0919189,-0.313171,0.86731
1481309355707520,0.331848,-0.0681152,-0.31781,0.885498
1481309355731517,0.281189,-0.0435181,-0.323669,0.902344
1481309355746030,0.233887,-0.0197144,-0.328491,0.914856
1481309355767539,0.184387,0.00561523,-0.3302,0.925659
1481309355789539,0.127625,0.0327148,-0.329895,0.934753
1481309355806537,0.0661011,0.0613403,-0.327942,0.940369
1481309355826610,0.00317383,0.0900269,-0.325012,0.941406
1481309355850056,-0.0562134,0.116272,-0.320984,0.938232
1481309355865630,-0.108032,0.139832,-0.317322,0.931702
1481309355887565,-0.157593,0.163391,-0.313721,0.921936
1481309355909634,-0.211853,0.187805,-0.309387,0.907776
1481309355925594,-0.269897,0.213074,-0.304077,0.888428
1481309355947581,-0.328125,0.240051,-0.297119,0.863953
1481309355971590,-0.381714,0.267029,-0.288635,0.836426
1481309355985588,-0.429443,0.292603,-0.278442,0.807739
1481309356007595,-0.469727,0.315552,-0.268616,0.77948
1481309356029663,-0.496399,0.333923,-0.261658,0.757385
1481309356045689,-0.512878,0.348083,-0.257874,0.74115
1481309356067706,-0.524231,0.359985,-0.255493,0.728271
1481309356089701,-0.532959,0.370667,-0.25061,0.71814
1481309356111704,-0.535278,0.378174,-0.245789,0.714172
1481309356126772,-0.53363,0.381042,-0.242493,0.714966
1481309356149713,-0.526733,0.378174,-0.242615,0.721558
1481309356171720,-0.513977,0.370972,-0.244995,0.733643
1481309356186726,-0.493958,0.358643,-0.250854,0.751282
1481309356209747,-0.461243,0.340088,-0.260864,0.776855
1481309356225722,-0.409729,0.315308,-0.272339,0.811462
1481309356249236,-0.341309,0.285034,-0.28125,0.850403
1481309356269826,-0.270996,0.250793,-0.285095,0.884521
1481309356285743,-0.202759,0.213013,-0.285828,0.912048
1481309356308744,-0.133728,0.172791,-0.283875,0.933594
1481309356329806,-0.0645142,0.13324,-0.278564,0.948914
1481309356345755,0.00012207,0.0961914,-0.269592,0.95813
1481309356368765,0.0585327,0.0608521,-0.258606,0.96228
1481309356389781,0.112793,0.0275269,-0.24707,0.961975
1481309356405769,0.162842,-0.00286865,-0.236145,0.957947
1481309356428768,0.209839,-0.0305786,-0.225098,0.950928
1481309356449785,0.254822,-0.0562134,-0.212891,0.941528
1481309356471792,0.297791,-0.0794067,-0.200806,0.929871
1481309356488794,0.337585,-0.101746,-0.189453,0.916382
1481309356509866,0.378418,-0.124207,-0.177673,0.899841
1481309356531798,0.421021,-0.146301,-0.165466,0.8797
1481309356554814,0.464722,-0.167358,-0.152954,0.855896
1481309356569823,0.506653,-0.187561,-0.141052,0.829529
1481309356591887,0.545593,-0.207581,-0.129639,0.801514
1481309356608817,0.583862,-0.2276,-0.117859,0.770325
1481309356629889,0.621155,-0.246826,-0.105286,0.736267
1481309356652333,0.656433,-0.264404,-0.092041,0.7005
1481309356668840,0.687988,-0.27887,-0.0787354,0.665283
1481309356689854,0.712708,-0.288391,-0.067627,0.635864
1481309356711843,0.72699,-0.291992,-0.0618896,0.618286
1481309356728842,0.731689,-0.29071,-0.0629883,0.613281
1481309356749858,0.733398,-0.287964,-0.065979,0.612244
1481309356771865,0.734009,-0.283813,-0.0680542,0.613159
1481309356788865,0.732788,-0.278992,-0.0703735,0.616577
1481309356809915,0.728699,-0.275269,-0.0731201,0.622742
1481309356831966,0.724976,-0.27301,-0.0736084,0.627991
1481309356848881,0.722839,-0.271851,-0.0697632,0.631409
1481309356869891,0.718689,-0.270142,-0.0638428,0.637451
1481309356891957,0.710571,-0.270752,-0.0559082,0.646973
1481309356908888,0.701416,-0.277588,-0.0406494,0.655151
1481309356929962,0.693542,-0.287659,-0.0182495,0.660217
1481309356952406,0.682373,-0.299255,0.0078125,0.666809
1481309356968913,0.668579,-0.313416,0.0363159,0.67334
1481309356990014,0.650513,-0.329041,0.0678101,0.681091
1481309357011918,0.628784,-0.344116,0.100464,0.690002
1481309357028916,0.604126,-0.359253,0.133789,0.698608
1481309357049932,0.578369,-0.374634,0.167603,0.704956
1481309357071938,0.552063,-0.389221,0.201294,0.70929
1481309357087940,0.52417,-0.40271,0.234924,0.712585
1481309357109945,0.496765,-0.414307,0.26886,0.713623
1481309357131970,0.467896,-0.424622,0.302673,0.713501
1481309357147951,0.438293,-0.434204,0.3349,0.712158
1481309357169966,0.408203,-0.442871,0.366028,0.709412
1481309357199979,0.378235,-0.450256,0.396057,0.7052
1481309357207962,0.349976,-0.456177,0.424927,0.699158
1481309357230964,0.321289,-0.460876,0.45343,0.691895
1481309357252481,0.293579,-0.464233,0.481384,0.683044
1481309357267990,0.266724,-0.466492,0.507813,0.673279
1481309357290991,0.239807,-0.46875,0.532043,0.663025
1481309357312011,0.213318,-0.47113,0.553223,0.652954
1481309357327989,0.190308,-0.471436,0.572144,0.643494
1481309357351006,0.172974,-0.470215,0.587708,0.635193
1481309357371942,0.156311,-0.471375,0.598755,0.628357
1481309357388920,0.143372,-0.470825,0.608093,0.622803
1481309357410920,0.13678,-0.468567,0.61499,0.619263
1481309357431938,0.135925,-0.466797,0.617004,0.618774
1481309357447934,0.139099,-0.46637,0.614868,0.620483
1481309357478888,0.144836,-0.46637,0.609802,0.624207
1481309357491956,0.154053,-0.465698,0.601929,0.630066
1481309357507888,0.16626,-0.466003,0.590332,0.637695
1481309357530887,0.180542,-0.466492,0.575378,0.647034
1481309357553399,0.196899,-0.466797,0.557861,0.657349
1481309357567693,0.213562,-0.46698,0.538025,0.668457
1481309357590701,0.22998,-0.46698,0.515869,0.680298
1481309357611707,0.24707,-0.466248,0.491333,0.692932
1481309357627695,0.264526,-0.464539,0.464417,0.706055
1481309357651209,0.282349,-0.461609,0.436584,0.71875
1481309357672027,0.299744,-0.457397,0.408386,0.730774
1481309357688025,0.318115,-0.451538,0.379822,0.742004
1481309357711029,0.337036,-0.444336,0.349915,0.752625
1481309357732101,0.356812,-0.435913,0.31897,0.762146
1481309357755731,0.377197,-0.426086,0.286072,0.770874
1481309357771730,0.397705,-0.414124,0.251404,0.779114
1481309357791801,0.417969,-0.399597,0.216614,0.78656
1481309357807783,0.43866,-0.383423,0.182068,0.792053
1481309357830733,0.457947,-0.365967,0.145386,0.796936
1481309357853246,0.474854,-0.347351,0.107117,0.801453
1481309357867804,0.491028,-0.327332,0.0684204,0.804382
1481309357890803,0.50769,-0.30542,0.0281982,0.805054
1481309357911806,0.522339,-0.281616,-0.0143433,0.804688
1481309357927805,0.532898,-0.255127,-0.057312,0.804749
1481309357951316,0.538879,-0.22821,-0.0975952,0.804993
1481309357971941,0.54126,-0.202759,-0.13623,0.804565
1481309357987941,0.539246,-0.178894,-0.173279,0.804443
1481309358010946,0.533325,-0.157288,-0.204956,0.80542
1481309358031948,0.524475,-0.138733,-0.231262,0.807556
1481309358048452,0.517395,-0.123962,-0.250671,0.808716
1481309358070989,0.512878,-0.113586,-0.262939,0.809204
1481309358092061,0.507629,-0.105896,-0.269043,0.811584
1481309358107990,0.5,-0.0991211,-0.270752,0.816589
1481309358130037,0.491089,-0.0933838,-0.26947,0.823059
1481309358154006,0.483887,-0.0892944,-0.26593,0.828918
1481309358168517,0.474121,-0.0845947,-0.261841,0.836304
1481309358190517,0.455811,-0.0770264,-0.258545,0.848206
1481309358213519,0.434814,-0.0687256,-0.254639,0.861023
1481309358227522,0.414795,-0.0605469,-0.248901,0.873108
1481309358250538,0.390381,-0.0505371,-0.241333,0.887024
1481309358273598,0.358215,-0.0374756,-0.232605,0.903381
1481309358310607,0.32019,-0.0229492,-0.221985,0.920654
1481309358313600,0.282898,-0.00854492,-0.208984,0.936035
1481309358333605,0.248413,0.00604248,-0.192627,0.94928
1481309358354117,0.216309,0.0192261,-0.171997,0.960815
1481309358370257,0.189453,0.0296021,-0.147095,0.970337
1481309358393261,0.165161,0.0391235,-0.118347,0.978333
1481309358414278,0.141052,0.0485229,-0.0856323,0.985046
1481309358430260,0.119141,0.0562744,-0.0494385,0.98999
1481309358453795,0.103455,0.0623169,-0.00982666,0.992615
1481309358474860,0.0891113,0.0680542,0.0332642,0.993103
1481309358490805,0.0739136,0.0731201,0.0792847,0.991394
1481309358513809,0.057373,0.0772705,0.126892,0.987183
1481309358534890,0.0400391,0.0810547,0.175171,0.980347
1481309358550815,0.0202637,0.085144,0.224365,0.97052
1481309358573326,-0.00244141,0.0890503,0.274353,0.957458
1481309358594394,-0.0282593,0.0911255,0.324219,0.941101
1481309358610328,-0.0541992,0.0922241,0.372986,0.92157
1481309358633330,-0.0784912,0.0930786,0.419556,0.899475
1481309358654843,-0.0993042,0.0950317,0.462708,0.875732
1481309358670098,-0.117737,0.0973511,0.501709,0.851379
1481309358694092,-0.13446,0.0991821,0.536011,0.827454
1481309358715100,-0.149353,0.100342,0.565369,0.804932
1481309358730096,-0.16217,0.101257,0.590881,0.783752
1481309358753606,-0.172546,0.101868,0.613281,0.763977
1481309358774686,-0.179993,0.103394,0.63208,0.746521
1481309358790619,-0.184875,0.106995,0.646851,0.732056
1481309358813617,-0.19281,0.112061,0.657898,0.719299
1481309358834688,-0.2005,0.115417,0.666321,0.708801
1481309358857221,-0.207153,0.118347,0.672302,0.700745
1481309358873172,-0.212769,0.122375,0.675903,0.694885
1481309358894172,-0.218567,0.12616,0.677979,0.690369
1481309358910172,-0.223267,0.130432,0.678772,0.687317
1481309358934173,-0.227295,0.134521,0.678345,0.685608
1481309358954686,-0.232117,0.137573,0.677002,0.684692
1481309358978498,-0.238586,0.139038,0.675415,0.683716
1481309358992502,-0.244812,0.140198,0.673401,0.683289
1481309359014592,-0.250122,0.141541,0.671021,0.683472
1481309359030513,-0.254639,0.142944,0.668701,0.683716
1481309359053095,-0.259155,0.143921,0.666931,0.683533
1481309359074675,-0.263123,0.145203,0.665344,0.68335
1481309359090607,-0.267456,0.145508,0.663391,0.683411
1481309359112609,-0.27179,0.145813,0.661133,0.683899
1481309359143638,-0.274719,0.1474,0.658997,0.684448
1481309359150639,-0.277893,0.148071,0.657227,0.684753
1481309359172647,-0.282715,0.146423,0.655701,0.68457
1481309359196649,-0.288757,0.143616,0.655151,0.683167
1481309359216721,-0.298889,0.137085,0.655029,0.680298
1481309359232656,-0.313416,0.126221,0.654602,0.676208
1481309359256284,-0.330627,0.114136,0.653625,0.671143
1481309359277360,-0.353271,0.0979004,0.651184,0.664429
1481309359293286,-0.379822,0.0742798,0.6474,0.656555
1481309359316288,-0.401855,0.0494385,0.642944,0.650085
1481309359337290,-0.417236,0.0272217,0.63739,0.647217
1481309359353298,-0.427307,0.00695801,0.630005,0.648376
1481309359375806,-0.434265,-0.0128784,0.621765,0.651611
1481309359396809,-0.441406,-0.0366821,0.610901,0.656189
1481309359412810,-0.449036,-0.0632935,0.597046,0.661682
1481309359435814,-0.457886,-0.0915527,0.579956,0.667542
1481309359457390,-0.467651,-0.120178,0.558167,0.674744
1481309359473391,-0.47821,-0.150085,0.531555,0.6828
1481309359503393,-0.487671,-0.17865,0.501709,0.691772
1481309359517466,-0.493347,-0.203979,0.469177,0.70343
1481309359533397,-0.498047,-0.229797,0.433411,0.715027
1481309359556440,-0.501465,-0.255615,0.394043,0.726563
1481309359577441,-0.501709,-0.280029,0.352051,0.738831
1481309359592498,-0.499146,-0.302429,0.308777,0.751038
1481309359616445,-0.494202,-0.322571,0.264099,0.762878
1481309359637445,-0.485718,-0.340271,0.218811,0.774841
1481309359652955,-0.475464,-0.356873,0.172607,0.785339
1481309359676536,-0.463501,-0.372131,0.126831,0.794128
1481309359698634,-0.450684,-0.386353,0.0825806,0.800476
1481309359712541,-0.43634,-0.399109,0.0401001,0.80542
1481309359735546,-0.422852,-0.410217,-0.00134277,0.808044
1481309359757593,-0.409485,-0.419556,-0.0408936,0.809082
1481309359772593,-0.396667,-0.426025,-0.0791626,0.809265
1481309359795596,-0.385193,-0.43042,-0.11615,0.807983
1481309359817599,-0.375488,-0.432434,-0.151978,0.805542
1481309359832600,-0.368591,-0.432373,-0.186035,0.801636
1481309359855606,-0.361145,-0.43042,-0.21698,0.798279
1481309359876794,-0.352539,-0.42749,-0.245728,0.795349
1481309359892753,-0.343567,-0.423828,-0.272461,0.792542
1481309359915758,-0.333191,-0.419922,-0.297363,0.790039
1481309359936760,-0.321899,-0.41626,-0.320862,0.787476
1481309359953282,-0.309631,-0.412292,-0.343079,0.785156
1481309359975291,-0.296387,-0.40802,-0.363892,0.783081
1481309360004292,-0.28064,-0.404175,-0.383606,0.781494
1481309360013293,-0.263428,-0.400452,-0.403015,0.779663
1481309360035295,-0.247009,-0.395081,-0.424194,0.776489
1481309360058156,-0.231812,-0.388,-0.446167,0.772461
1481309360073153,-0.214783,-0.382568,-0.465881,0.768433
1481309360095157,-0.196655,-0.378784,-0.482544,0.764893
1481309360118160,-0.179016,-0.375244,-0.497498,0.761353
1481309360133158,-0.163025,-0.37085,-0.512878,0.756897
1481309360155702,-0.147217,-0.364136,-0.529236,0.752075
1481309360178370,-0.132507,-0.358521,-0.543152,0.74762
1481309360193366,-0.118469,-0.354309,-0.555054,0.743225
1481309360215370,-0.108032,-0.350037,-0.564758,0.739502
1481309360244965,-0.0994873,-0.347717,-0.57019,0.73761
1481309360259754,-0.0903931,-0.348328,-0.571899,0.737183
1481309360275755,-0.0831299,-0.350159,-0.571899,0.737183
1481309360298757,-0.0805664,-0.350647,-0.571411,0.73761
1481309360319838,-0.0795288,-0.35199,-0.567993,0.739685
1481309360335760,-0.0745239,-0.357849,-0.560608,0.743042
1481309360358862,-0.0682983,-0.36615,-0.551147,0.746643
1481309360379930,-0.0640869,-0.375366,-0.539612,0.750916
1481309360395861,-0.0668335,-0.386292,-0.522156,0.757385
1481309360418867,-0.0686646,-0.400024,-0.499207,0.765564
1481309360439927,-0.071106,-0.4151,-0.471375,0.774902
1481309360455378,-0.0755005,-0.429749,-0.43866,0.785645
1481309360478886,-0.0817871,-0.443481,-0.400269,0.797729
1481309360499905,-0.0862427,-0.457947,-0.355286,0.810364
1481309360515885,-0.0891113,-0.471985,-0.304382,0.822571
1481309360538889,-0.088501,-0.48468,-0.246887,0.834473
1481309360559543,-0.085083,-0.494446,-0.184021,0.845215
1481309360575474,-0.0814209,-0.500061,-0.118652,0.853943
1481309360598475,-0.0766602,-0.501404,-0.0529175,0.860168
1481309360619561,-0.0718384,-0.497925,0.0109253,0.864136
1481309360643484,-0.0695801,-0.489807,0.0722656,0.866028
1481309360657997,-0.0641479,-0.476929,0.13385,0.866333
1481309360680027,-0.0506592,-0.458557,0.195251,0.865479
1481309360695025,-0.0323486,-0.434387,0.253296,0.863708
1481309360726027,-0.0145874,-0.404602,0.307068,0.861267
1481309360740043,-0.00152588,-0.372864,0.355591,0.856995
1481309360755509,0.010376,-0.33905,0.398621,0.852051
1481309360778114,0.0278931,-0.298401,0.438782,0.847107
1481309360800020,0.0475464,-0.250488,0.475281,0.842041
1481309360815041,0.0565186,-0.205078,0.503296,0.837463
1481309360838021,0.0578613,-0.166504,0.52356,0.833496
1481309360860110,0.0656128,-0.123657,0.541504,0.828918
1481309360875106,0.0842285,-0.0713501,0.555908,0.823853
1481309360898109,0.0978394,-0.0186157,0.564514,0.819336
1481309360920109,0.100952,0.0255737,0.567932,0.816406
1481309360935112,0.105835,0.0700684,0.568054,0.81311
1481309360958196,0.119812,0.120361,0.563354,0.808472
1481309360980198,0.130981,0.171265,0.554688,0.803589
1481309360995196,0.133179,0.212097,0.543213,0.80127
1481309361018200,0.135315,0.248169,0.528076,0.80072
1481309361041199,0.144775,0.282959,0.509399,0.799622
1481309361055709,0.161865,0.315796,0.48761,0.797607
1481309361078053,0.183533,0.345032,0.461853,0.796143
1481309361101055,0.208557,0.373413,0.430054,0.794983
1481309361122137,0.229858,0.399414,0.393921,0.795227
1481309361138061,0.24353,0.422729,0.355469,0.797241
1481309361160715,0.248535,0.441711,0.314453,0.802551
1481309361181759,0.251831,0.458557,0.271362,0.8078
1481309361197688,0.259521,0.47583,0.224854,0.809692
1481309361220689,0.267761,0.492371,0.174622,0.809509
1481309361242702,0.2724,0.506653,0.121399,0.808899
1481309361257799,0.27124,0.516785,0.067688,0.809143
1481309361280800,0.263489,0.524841,0.0147095,0.809204
1481309361301806,0.254333,0.531189,-0.0390625,0.80719
1481309361317803,0.245911,0.534729,-0.09375,0.802917
1481309361340804,0.233887,0.535889,-0.146362,0.797852
1481309361361907,0.215027,0.535706,-0.195129,0.792847
1481309361377838,0.191895,0.533752,-0.242737,0.786926
1481309361400840,0.170227,0.529724,-0.291443,0.778076
1481309361421914,0.151611,0.52356,-0.339233,0.766663
1481309361437839,0.130432,0.516968,-0.381409,0.755066
1481309361460948,0.107239,0.509949,-0.419373,0.743286
1481309361482019,0.088562,0.5,-0.455627,0.731079
1481309361497949,0.0748291,0.487183,-0.48938,0.71936
1481309361520950,0.0643921,0.473083,-0.519775,0.708374
1481309361542458,0.0554199,0.458191,-0.546814,0.698547
1481309361556959,0.0438843,0.446167,-0.568176,0.690002
1481309361571107,0.0307007,0.438416,-0.583984,0.682495
1481309361594032,0.0231323,0.433044,-0.593567,0.677917
1481309361617106,0.0197144,0.427917,-0.59967,0.675903
1481309361649624,0.0195923,0.424072,-0.602295,0.676025
1481309361654125,0.0198364,0.422729,-0.601746,0.677307
1481309361677228,0.0204468,0.423462,-0.598267,0.679932
1481309361691229,0.022522,0.426086,-0.592102,0.683594
1481309361714230,0.0241089,0.431885,-0.582581,0.688049
1481309361737179,0.0249023,0.440552,-0.57019,0.692932
1481309361751743,0.0279541,0.450012,-0.555481,0.698669
1481309361774427,0.0327759,0.460815,-0.537354,0.705566
1481309361797496,0.0358887,0.473877,-0.515808,0.71283
1481309361811493,0.041748,0.48645,-0.491089,0.721436
1481309361833495,0.0529175,0.496399,-0.465393,0.730835
1481309361857507,0.0690308,0.504333,-0.438782,0.740479
1481309361871084,0.086792,0.512024,-0.408691,0.750488
1481309361894027,0.102844,0.521118,-0.372192,0.761108
1481309361917086,0.117188,0.530762,-0.327942,0.772583
1481309361932018,0.12677,0.540527,-0.274963,0.784912
1481309361954097,0.130493,0.547852,-0.214539,0.797913
1481309361977621,0.134277,0.549866,-0.15094,0.810425
1481309361991691,0.137085,0.546753,-0.085083,0.821533
1481309362013693,0.136169,0.538086,-0.0169067,0.831604
1481309362037694,0.131775,0.523682,0.0519409,0.840027
1481309362051706,0.125366,0.503845,0.119141,0.846252
1481309362073826,0.114624,0.47876,0.18396,0.850708
1481309362096826,0.100159,0.448242,0.245483,0.853638
1481309362114756,0.0878296,0.413696,0.300964,0.854675
1481309362133829,0.078064,0.376343,0.349548,0.854431
1481309362157266,0.0656128,0.335327,0.392334,0.853943
1481309362171272,0.0498047,0.290833,0.428528,0.853943
1481309362194346,0.0335693,0.245056,0.45697,0.85437
1481309362217277,0.0186157,0.19989,0.478027,0.855042
1481309362231346,0.00402832,0.154175,0.492004,0.85675
1481309362254356,-0.00970459,0.108154,0.499695,0.859314
1481309362276999,-0.0209961,0.0634155,0.501465,0.862549
1481309362291930,-0.0322876,0.0192261,0.497986,0.866333
1481309362314000,-0.0428467,-0.024231,0.489441,0.870605
1481309362336932,-0.0523682,-0.0662842,0.476318,0.875183
1481309362353512,-0.06073,-0.106018,0.459167,0.879822
1481309362374033,-0.0681152,-0.143433,0.438782,0.88446
1481309362397103,-0.0759277,-0.178467,0.415039,0.888855
1481309362412036,-0.083252,-0.21106,0.388428,0.893066
1481309362434037,-0.0907593,-0.241333,0.359802,0.896667
1481309362457543,-0.098877,-0.269409,0.328003,0.899963
1481309362471170,-0.108215,-0.295959,0.292053,0.902954
1481309362494233,-0.11792,-0.319824,0.254028,0.90509
1481309362517164,-0.125305,-0.339966,0.215149,0.90686
1481309362539166,-0.132751,-0.358093,0.172852,0.907837
1481309362554172,-0.141418,-0.374146,0.128113,0.907532
1481309362576298,-0.147644,-0.387695,0.0841675,0.905945
1481309362599299,-0.150574,-0.399231,0.0413818,0.903442
1481309362614300,-0.151001,-0.408875,-0.000549316,0.900024
1481309362636233,-0.150757,-0.416321,-0.0412598,0.89563
1481309362668268,-0.15094,-0.421387,-0.0808105,0.890564
1481309362683270,-0.151184,-0.423889,-0.118591,0.885071
1481309362696269,-0.149231,-0.424377,-0.154968,0.879517
1481309362719266,-0.145447,-0.422852,-0.190247,0.873962
1481309362734272,-0.138306,-0.420105,-0.2229,0.868713
1481309362756778,-0.128845,-0.416443,-0.254272,0.863342
1481309362779840,-0.118835,-0.411865,-0.285339,0.857239
1481309362793841,-0.106323,-0.40686,-0.315247,0.850769
1481309362816844,-0.0916138,-0.401184,-0.343811,0.844055
1481309362839854,-0.0745239,-0.395386,-0.371094,0.836914
1481309362854281,-0.0548706,-0.389648,-0.396179,0.82959
1481309362876699,-0.0328369,-0.384583,-0.4198,0.821472
1481309362899634,-0.012146,-0.378845,-0.44397,0.811951
1481309362913703,0.0090332,-0.372742,-0.467163,0.801697
1481309362936632,0.0334473,-0.366821,-0.487305,0.791748
1481309362959313,0.0577393,-0.360901,-0.506958,0.78064
1481309362974241,0.0808716,-0.354065,-0.526855,0.768494
1481309362996312,0.106323,-0.348083,-0.543579,0.756348
1481309363019242,0.133545,-0.342407,-0.558289,0.743774
1481309363034248,0.158997,-0.334351,-0.574097,0.730286
1481309363056753,0.180847,-0.322815,-0.59137,0.716492
1481309363079762,0.204712,-0.313782,-0.605286,0.702332
1481309363093832,0.229858,-0.305542,-0.616943,0.687866
1481309363116837,0.251892,-0.295471,-0.628906,0.673584
1481309363140765,0.270264,-0.282898,-0.64209,0.659241
1481309363155775,0.287231,-0.270203,-0.655029,0.644531
1481309363184786,0.303589,-0.259216,-0.665833,0.63031
1481309363199786,0.31958,-0.25116,-0.674377,0.616455
1481309363213853,0.334412,-0.244202,-0.681763,0.603088
1481309363236783,0.346497,-0.236328,-0.688965,0.591125
1481309363259944,0.356079,-0.227722,-0.695801,0.580688
1481309363273943,0.365051,-0.220032,-0.701843,0.570679
1481309363296878,0.372437,-0.213928,-0.707153,0.561707
1481309363319875,0.376648,-0.208435,-0.711853,0.554993
1481309363333878,0.379456,-0.206299,-0.714661,0.550232
1481309363356885,0.381104,-0.207336,-0.715759,0.547241
1481309363379962,0.379456,-0.20874,-0.715942,0.547546
1481309363393963,0.376099,-0.211487,-0.714966,0.550171
1481309363417033,0.371826,-0.216125,-0.71283,0.554016
1481309363439965,0.36731,-0.222534,-0.709595,0.558594
1481309363454475,0.361084,-0.230591,-0.705505,0.564575
1481309363476570,0.354187,-0.23999,-0.700378,0.57135
1481309363499569,0.345764,-0.249451,-0.695129,0.578735
1481309363514504,0.335754,-0.259277,-0.68988,0.58667
1481309363536547,0.324768,-0.270142,-0.683533,0.595215
1481309363559745,0.313171,-0.282776,-0.675903,0.604248
1481309363573751,0.299927,-0.29425,-0.668396,0.61377
1481309363596746,0.285034,-0.304443,-0.661011,0.62384
1481309363619678,0.269043,-0.31366,-0.653259,0.634399
1481309363633681,0.252808,-0.323303,-0.644104,0.645508
1481309363656759,0.237244,-0.334106,-0.632751,0.657043
1481309363679336,0.221008,-0.344238,-0.619995,0.669495
1481309363694338,0.20282,-0.352417,-0.606323,0.683411
1481309363716338,0.183655,-0.35968,-0.590942,0.698364
1481309363739340,0.16449,-0.366272,-0.573364,0.714172
1481309363754349,0.14563,-0.373047,-0.55304,0.730591
1481309363776901,0.126526,-0.379333,-0.530457,0.747498
1481309363799973,0.10553,-0.38385,-0.507324,0.764282
1481309363813972,0.0829468,-0.386963,-0.48407,0.780396
1481309363836912,0.0598755,-0.388794,-0.460388,0.795776
1481309363858983,0.0365601,-0.389465,-0.435303,0.810852
1481309363874080,0.0135498,-0.389465,-0.408325,0.8255
1481309363897124,-0.00872803,-0.38916,-0.380127,0.83905
1481309363919081,-0.031189,-0.388245,-0.35144,0.851318
1481309363934163,-0.0545044,-0.386108,-0.32312,0.862305
1481309363956663,-0.0765381,-0.383179,-0.293823,0.872314
1481309363978741,-0.0962524,-0.379517,-0.262451,0.881958
1481309363993741,-0.114502,-0.37439,-0.22821,0.891418
1481309364024676,-0.132568,-0.367065,-0.193665,0.900085
1481309364038743,-0.151184,-0.357666,-0.1604,0.907471
1481309364057254,-0.170349,-0.346069,-0.127625,0.913696
1481309364076345,-0.188721,-0.331909,-0.0935059,0.919495
1481309364100278,-0.205444,-0.314941,-0.0584106,0.924744
1481309364114351,-0.220276,-0.296387,-0.0241699,0.929016
1481309364136287,-0.230774,-0.276978,0.00933838,0.932678
1481309364159289,-0.237488,-0.253662,0.043335,0.936646
1481309364174383,-0.243347,-0.227234,0.0762329,0.93988
1481309364196454,-0.247437,-0.200256,0.108093,0.941772
1481309364219386,-0.248169,-0.170532,0.139893,0.943237
1481309364234385,-0.24707,-0.136597,0.171265,0.943909
1481309364256977,-0.245911,-0.101257,0.2005,0.942871
1481309364279550,-0.240051,-0.0667114,0.228821,0.94104
1481309364295549,-0.227173,-0.0300903,0.256653,0.938904
1481309364316550,-0.213623,0.00805664,0.282166,0.935242
1481309364338623,-0.201965,0.0457153,0.305908,0.92926
1481309364354133,-0.188354,0.0806274,0.327271,0.922424
1481309364376746,-0.170776,0.112915,0.344971,0.915955
1481309364407657,-0.152466,0.144226,0.358521,0.909607
1481309364413726,-0.137207,0.175537,0.368958,0.902283
1481309364436727,-0.123779,0.204773,0.377319,0.894592
1481309364459167,-0.104919,0.232483,0.381042,0.888611
1481309364490037,-0.0810547,0.260071,0.379395,0.884155
1481309364496953,-0.0588379,0.28595,0.374878,0.879883
1481309364518953,-0.0432739,0.309326,0.369446,0.875122
1481309364542025,-0.0292358,0.332458,0.361755,0.870422
1481309364556535,-0.0116577,0.356873,0.348816,0.866455
1481309364579175,0.00415039,0.3797,0.331482,0.863647
1481309364602106,0.0154419,0.399475,0.312256,0.861755
1481309364616109,0.0244751,0.416931,0.291138,0.860657
1481309364639179,0.0346069,0.434387,0.266602,0.859619
1481309364662231,0.0467529,0.452759,0.238281,0.85791
1481309364676286,0.0580444,0.471008,0.20697,0.855469
1481309364699288,0.0640869,0.486755,0.174683,0.853394
1481309364722222,0.0671997,0.500366,0.142456,0.851318
1481309364736219,0.072876,0.513672,0.107971,0.847961
1481309364767253,0.0789795,0.526062,0.0716553,0.843689
1481309364781280,0.0785522,0.536499,0.0359497,0.839417
1481309364796252,0.072876,0.545837,0.00140381,0.834656
1481309364819255,0.0669556,0.554749,-0.0352783,0.828552
1481309364841325,0.0617676,0.562012,-0.0741577,0.821411
1481309364856835,0.0546265,0.567078,-0.112061,0.814087
1481309364888358,0.0458374,0.569763,-0.149719,0.806702
1481309364901357,0.0357666,0.570496,-0.18811,0.798645
1481309364916425,0.0241699,0.569641,-0.224854,0.7901
1481309364939360,0.012085,0.567139,-0.259888,0.781433
1481309364961531,0.00354004,0.56134,-0.297119,0.772339
1481309364976532,-0.00183105,0.55188,-0.335388,0.763428
1481309364999463,-0.00579834,0.538513,-0.372498,0.755737
1481309365021464,-0.00476074,0.520874,-0.40979,0.748779
1481309365036466,-0.00170898,0.50415,-0.443298,0.74115
1481309365059477,-0.00524902,0.491516,-0.467896,0.734436
1481309365082526,-0.00933838,0.478882,-0.490051,0.728271
1481309365096597,-0.00488281,0.46167,-0.513306,0.723389
1481309365119531,0.00335693,0.445251,-0.533325,0.719238
1481309365141529,0.00439453,0.435974,-0.544006,0.716919
1481309365157040,-6.10352e-005,0.430298,-0.55304,0.71344
1481309365178660,-0.000976563,0.422485,-0.562439,0.710693
1481309365202589,0.00579834,0.410522,-0.573486,0.708923
1481309365216594,0.0165405,0.395264,-0.584961,0.708008
1481309365240591,0.0262451,0.381226,-0.59491,0.707092
1481309365261697,0.0314941,0.371277,-0.601318,0.706787
1481309365276701,0.0344238,0.364441,-0.60614,0.706055
1481309365298770,0.0392456,0.357971,-0.610779,0.705139
1481309365330712,0.0407104,0.354431,-0.612915,0.705017
1481309365336702,0.0386963,0.354126,-0.613342,0.704895
1481309365359210,0.0378418,0.353333,-0.613953,0.704773
1481309365381735,0.0385742,0.352112,-0.614258,0.705139
1481309365396806,0.0390015,0.351257,-0.613892,0.705872
1481309365418735,0.0394287,0.350708,-0.613953,0.706055
1481309365441829,0.0395508,0.350342,-0.614136,0.706055
1481309365456745,0.0394897,0.350037,-0.613892,0.706421
1481309365479255,0.0393677,0.349854,-0.613403,0.70697
1481309365501373,0.0393677,0.349976,-0.612732,0.707458
1481309365519258,0.0387573,0.350647,-0.611755,0.708008
1481309365539258,0.0383301,0.350952,-0.611084,0.708496
1481309365561813,0.0384521,0.351135,-0.610596,0.708801
1481309365576886,0.0383301,0.351624,-0.610107,0.708984
1481309365598886,0.0376587,0.352295,-0.60968,0.709045
1481309365621889,0.0369263,0.35321,-0.609314,0.708923
1481309365639816,0.0369263,0.353455,-0.609009,0.709045
1481309365659326,0.0375977,0.353027,-0.60907,0.709229
1481309365681927,0.0377808,0.352905,-0.609131,0.709167
1481309365697904,0.0370483,0.353394,-0.608887,0.709229
1481309365718906,0.036499,0.353882,-0.608582,0.709229
1481309365741906,0.0363159,0.354187,-0.608215,0.709412
1481309365765048,0.0357666,0.354492,-0.607971,0.709534
1481309365779078,0.0355225,0.354431,-0.60791,0.709656
1481309365803009,0.0353394,0.354187,-0.607788,0.709839
1481309365818010,0.034729,0.354004,-0.60791,0.709839
1481309365839011,0.0341187,0.353516,-0.608215,0.709839
1481309365862115,0.0339355,0.352966,-0.608398,0.709961
1481309365878114,0.0338745,0.352539,-0.608337,0.710266
1481309365899185,0.0332642,0.352539,-0.608276,0.710327
1481309365921116,0.0322266,0.352661,-0.608215,0.710327
