timestamp,x,y,z
1481271437822202,0.0917969,0.00341797,0.994629
1481271437842710,0.0839844,0.0336914,0.952148
1481271437882713,0.119141,0.0366211,1.0127
1481271437887712,0.117188,0.0263672,1.06006
1481271437909715,0.120605,0.0439453,1.03418
1481271437918297,0.0810547,0.0332031,0.973145
1481271437947740,0.0634766,0.0327148,0.985352
1481271437978743,0.0571289,0.0449219,1.03467
1481271437980744,0.0708008,0.0361328,1.05469
1481271437999784,0.0839844,0.0229492,1.02393
1481271438021756,0.074707,0.0209961,0.987305
1481271438039769,0.0791016,0.0307617,0.988281
1481271438059804,0.078125,0.050293,1.02686
1481271438082918,0.0966797,0.0429688,1.0459
1481271438097855,0.090332,0.0415039,1.03271
1481271438122306,0.0864258,0.0209961,1.00049
1481271438158796,0.0507813,0.0185547,0.987305
1481271438160802,0.0615234,0.0195313,0.999023
1481271438187942,0.0703125,0.0332031,1.0415
1481271438201798,0.0844727,0.0361328,1.03223
1481271438225810,0.078125,0.0268555,1.00195
1481271438239675,0.0805664,0.0239258,1
1481271438261640,0.0786133,0.0327148,0.981445
1481271438277648,0.0844727,0.0385742,1.03271
1481271438299678,0.0756836,0.0444336,1.05225
1481271438329659,0.0708008,0.0375977,1.01025
1481271438337662,0.0751953,0.0180664,1.00586
1481271438361664,0.09375,0.0200195,0.998047
1481271438381664,0.0874023,0.0205078,1.02246
1481271438399663,0.0776367,0.0361328,1.02295
1481271438435685,0.0292969,0.0683594,0.984863
1481271438441767,0.0649414,-0.0639648,1.04443
1481271438465695,0.0493164,0.0771484,1.01025
1481271438478686,0.0922852,0.0620117,1.01563
1481271438502685,0.134277,-0.00341797,0.976563
1481271438518693,0.110352,0.0478516,0.964844
1481271438540704,0.0947266,0.0625,1.02783
1481271438569710,0.146484,0.0253906,1.06885
1481271438577708,0.14209,0.0908203,1.04785
1481271438608709,0.0883789,0.0102539,0.959473
1481271438621719,0.0249023,0.0166016,1.00195
1481271438639727,0.0415039,0.00439453,1.02539
1481271438660727,0.097168,-0.000488281,0.939941
1481271438681729,0.0742188,0.0263672,1.0459
1481271438714238,0.0859375,-0.00585938,1.03809
1481271438720741,0.118652,-0.00195313,0.998535
1481271438744747,0.0649414,0.027832,1.00049
1481271438757815,0.090332,0.0102539,1.01025
1481271438781822,0.115234,-0.0273438,1.03662
1481271438809769,0.0698242,0.027832,1.05664
1481271438818307,0.0717773,0.0185547,1.00146
1481271438848577,0.0737305,0.00244141,1.00098
1481271438861577,0.0893555,0.0258789,0.974121
1481271438885580,0.109863,0.0175781,1.03857
1481271438900580,0.0742188,-0.00585938,1.03125
1481271438922088,0.0571289,-0.00683594,1.05762
1481271438938102,0.0258789,-0.0146484,1.0459
1481271438960107,0.0571289,-0.0200195,0.998047
1481271438991107,0.0717773,-0.00634766,1.00049
1481271438998105,0.0615234,-0.00634766,1.06592
1481271439022132,0.0458984,-0.0195313,1.01221
1481271439042215,0.0532227,-0.0117188,1.01807
1481271439059147,0.0649414,-0.0170898,1.02588
1481271439088144,0.043457,-0.0151367,1.04492
1481271439102179,0.0581055,-0.0205078,1.0249
1481271439125653,0.0551758,-0.019043,1.01855
1481271439146161,0.0483398,-0.0209961,1.00586
1481271439164164,0.0356445,-0.0209961,1.02393
1481271439178164,0.0541992,-0.0249023,1.04004
1481271439200166,0.0483398,-0.0209961,1.02539
1481271439230178,0.0458984,-0.0209961,1.00391
1481271439238179,0.0649414,-0.0170898,1.01807
1481271439269180,0.0375977,-0.0185547,1.01318
1481271439282235,0.0288086,-0.0136719,1.01367
1481271439299186,0.0483398,-0.0229492,1.02148
1481271439320692,0.0551758,-0.0297852,1.01953
1481271439341694,0.0522461,-0.0268555,1.02246
1481271439365698,0.0429688,-0.019043,1.0127
1481271439380699,0.0375977,-0.0200195,1.02344
1481271439404702,0.0385742,-0.0185547,1.01221
1481271439425705,0.0424805,-0.0234375,1.01367
1481271439442207,0.0527344,-0.0175781,1.01123
1481271439471711,0.0424805,-0.0078125,1.02734
1481271439478212,0.0380859,-0.0117188,1.01514
1481271439508216,0.0483398,-0.0253906,1.02051
1481271439523252,0.0537109,-0.0170898,1.01514
1481271439547254,0.0463867,-0.0102539,1.02539
1481271439560722,0.0532227,-0.00537109,1.0293
1481271439583259,0.0551758,-0.0107422,1.01367
1481271439599728,0.0366211,-0.0219727,1.01953
1481271439620729,0.0385742,-0.0166016,1.02881
1481271439643296,0.0556641,-0.0141602,1.01953
1481271439659734,0.0415039,-0.0141602,1.0166
1481271439680737,0.0634766,-0.00732422,0.991211
1481271439703304,0.0356445,-0.0102539,1.0376
1481271439724306,0.0327148,-0.0131836,1.03418
1481271439740745,0.0522461,-0.0112305,1.01172
1481271439763307,0.0571289,-0.015625,1.00928
1481271439784776,0.0439453,-0.0161133,1.01123
1481271439808307,0.0380859,-0.0229492,1.07031
1481271439823307,0.0424805,-0.0141602,1.00049
1481271439844306,0.0322266,-0.0112305,1.01221
1481271439860760,0.0512695,-0.0117188,1.01611
1481271439883307,0.0478516,-0.0102539,1.02344
1481271439904309,0.0473633,-0.0141602,1.02393
1481271439920767,0.0405273,-0.0126953,1.01709
1481271439943771,0.0395508,-0.0117188,1.01123
1481271439964284,0.0341797,-0.0131836,1.02441
1481271439980775,0.0463867,-0.0117188,1.02197
1481271440003301,0.0473633,-0.0126953,1.02295
1481271440024781,0.0493164,-0.0117188,1.01416
1481271440040783,0.043457,-0.0146484,1.01611
1481271440063306,0.0415039,-0.0136719,1.01465
1481271440084306,0.0400391,-0.0161133,1.00781
1481271440100791,0.0444336,-0.0146484,1.02539
1481271440123793,0.0385742,-0.0161133,1.01855
1481271440144831,0.0551758,-0.00195313,1.00684
1481271440160799,0.046875,-0.0078125,1.02246
1481271440183802,0.0415039,-0.0166016,1.01855
1481271440204306,0.034668,-0.0161133,1.03809
1481271440220806,0.0600586,-0.00830078,1.00684
1481271440243308,0.0478516,-0.0078125,1.00977
1481271440264312,0.0454102,-0.0117188,1.01465
1481271440280814,0.0385742,-0.012207,1.02637
1481271440302852,0.0512695,-0.0141602,1.01758
1481271440324825,0.0546875,-0.00976563,1.01709
1481271440339827,0.0380859,-0.0126953,1.01074
1481271440363828,0.0405273,-0.0161133,1.03125
1481271440384831,0.0561523,-0.0131836,1.0166
1481271440399831,0.0512695,-0.0112305,1.03809
1481271440421848,0.0566406,-0.0117188,1.00879
1481271440444849,0.0424805,-0.00830078,0.996094
1481271440459851,0.0454102,-0.0102539,1.00488
1481271440482916,0.0454102,-0.00292969,1.03027
1481271440505439,0.0400391,-0.00878906,1.03662
1481271440520374,0.0561523,-0.0112305,1.02393
1481271440542943,0.0478516,-0.0126953,1.00586
1481271440564884,0.0498047,-0.00341797,1.00537
1481271440580880,0.0444336,-0.00634766,1.02588
1481271440602946,0.0429688,-0.0170898,1.03174
1481271440624900,0.0493164,-0.0209961,1.01611
1481271440640926,0.0556641,-0.0180664,1.00586
1481271440662408,0.0478516,-0.00390625,1.01807
1481271440684805,0.0571289,-0.0078125,1.0332
1481271440700809,0.0527344,-0.00341797,1.02344
1481271440721989,0.0429688,-0.0146484,1.01465
1481271440744910,0.0463867,-0.00927734,1.01807
1481271440760913,0.0566406,-0.00634766,1.01855
1481271440782979,0.0522461,-0.0107422,1.01611
1481271440804995,0.0512695,-0.00927734,1.01904
1481271440829014,0.0424805,-0.00488281,1.01074
1481271440842013,0.046875,-0.00878906,1.01025
1481271440865016,0.0498047,-0.0131836,1.01514
1481271440881031,0.0532227,-0.00732422,1.03174
1481271440902019,0.0522461,-0.00732422,1.01416
1481271440925034,0.0537109,-0.00195313,1.01709
1481271440941070,0.0600586,-0.0112305,1.0166
1481271440962039,0.0463867,-0.00292969,1.0127
1481271440985039,0.0390625,-0.00683594,1.02441
1481271441000041,0.0581055,-0.0107422,1.03467
1481271441022063,0.0546875,-0.00488281,1.01318
1481271441045068,0.0581055,-0.00732422,1.00977
1481271441061069,0.0458984,0.000488281,1.03076
1481271441082067,0.0473633,-0.00585938,1.01855
1481271441105615,0.0541992,-0.00585938,1.01611
1481271441121148,0.0463867,-0.00976563,1.02002
1481271441142250,0.0551758,-0.00830078,1.01221
1481271441165159,0.0493164,-0.0078125,1.02539
1481271441195162,0.0605469,-0.0112305,1.01563
1481271441202163,0.0439453,-0.00439453,1.02832
1481271441225177,0.0517578,-0.00732422,1.02441
1481271441247178,0.0546875,-0.0112305,1.01807
1481271441262179,0.0498047,-0.0102539,1.03076
1481271441285182,0.0507813,-0.00439453,1.02588
1481271441307688,0.0366211,-0.00634766,1.00684
1481271441322197,0.043457,-0.0107422,1.0166
1481271441345201,0.0507813,-0.0131836,1.02881
1481271441369200,0.0581055,-0.0102539,1.02441
1481271441382203,0.0512695,-0.00488281,1.01318
1481271441405286,0.0512695,-0.00683594,1.01074
1481271441427310,0.0566406,-0.015625,1.0332
1481271441442311,0.043457,-0.012207,1.0249
1481271441465313,0.0473633,-0.00732422,1.01367
1481271441487314,0.0458984,-0.0136719,1.00928
1481271441504314,0.0488281,-0.0117188,1.01514
1481271441525351,0.0478516,-0.00439453,1.03369
1481271441555354,0.0493164,-0.00878906,1.02246
1481271441564354,0.0444336,-0.0200195,1.02246
1481271441586354,0.0498047,-0.0141602,1.00586
1481271441607992,0.0566406,-0.012207,1.01611
1481271441624531,0.0449219,-0.0102539,1.02393
1481271441644477,0.0385742,-0.0146484,1.03711
1481271441667484,0.046875,-0.0131836,1.00537
1481271441691482,0.0410156,-0.0161133,1.00537
1481271441704483,0.0654297,-0.00927734,1.01563
1481271441728559,0.0541992,-0.00976563,1.02246
1481271441767534,0.0439453,-0.0141602,1.03076
1481271441772590,0.0415039,-0.0112305,1.00781
1481271441794500,0.0517578,-0.0141602,1.02051
1481271441804564,0.0546875,-0.0141602,1.02295
1481271441832609,0.0498047,-0.00439453,1.00928
1481271441847516,0.0390625,-0.00732422,1.0166
1481271441864519,0.0439453,-0.012207,1.02881
1481271441884611,0.059082,-0.0126953,1.01221
1481271441907525,0.0551758,-0.00976563,1.00928
1481271441923661,0.0439453,-0.00292969,1.02441
1481271441945555,0.0463867,-0.00927734,1.02734
1481271441968604,0.0507813,-0.0102539,1.00928
1481271441983696,0.0361328,-0.0141602,1.01025
1481271442006630,0.0488281,-0.00732422,1.0249
1481271442045171,0.0532227,-0.00927734,1.01904
1481271442050159,0.0556641,-0.00537109,1.01855
1481271442072205,0.046875,-0.00878906,1.01221
1481271442087161,0.0410156,-0.012207,1.01953
1481271442111671,0.0556641,-0.0126953,1.01563
1481271442124680,0.0498047,-0.0131836,1.01855
1481271442147683,0.0512695,-0.000976563,1.00781
1481271442163680,0.0410156,-0.00585938,1.03613
1481271442184778,0.0566406,-0.00683594,1.02148
1481271442215196,0.0444336,-0.00732422,1.01123
1481271442224310,0.0410156,-0.0112305,1.00928
1481271442246307,0.0561523,-0.00830078,1.01855
1481271442267392,0.0454102,-0.00488281,1.02979
1481271442284310,0.0512695,-0.00341797,1.01758
1481271442322426,0.0405273,0.000488281,1.00732
1481271442327424,0.0405273,-0.00341797,1.021
1481271442351426,0.0522461,-0.00830078,1.02393
1481271442365561,0.0532227,-0.00634766,1.00488
1481271442389498,0.0249023,-0.00292969,1.01807
1481271442403430,0.0166016,0.00634766,1.01465
1481271442424768,0.182617,-0.0332031,1.13574
1481271442454757,-0.188965,0.0507813,1.06299
1481271442462680,0.161621,-0.143555,1.02197
1481271442486678,0.0317383,0.0825195,1.02734
1481271442507712,-0.0141602,-0.034668,1.06787
1481271442523828,0.0517578,0.0629883,0.980469
1481271442546754,0.0581055,-0.0507813,1.02246
1481271442567759,0.0454102,-0.00390625,1.01123
1481271442582819,0.0649414,0.0410156,1.02197
1481271442606757,0.0341797,-0.0595703,1.02295
1481271442627808,0.0375977,-0.0126953,1.01758
1481271442643870,0.0395508,-0.0170898,0.981445
1481271442666874,0.0078125,-0.0341797,1.04248
1481271442687870,0.0180664,0.0253906,1.06885
1481271442703877,0.0512695,0.0532227,0.976563
1481271442726934,0.157715,0.027832,0.975098
1481271442747930,0.171875,-0.192383,1.18506
1481271442762914,-0.0405273,0.0478516,0.96582
1481271442786930,-0.0195313,0.0185547,1.0083
1481271442808026,0.0688477,0.0717773,0.998535
1481271442823099,0.0419922,-0.0180664,0.977051
1481271442847053,0.0258789,-0.0146484,0.991699
1481271442868067,0.100098,0.0102539,1.10303
1481271442883037,-0.015625,-0.0371094,0.959473
1481271442906099,-0.0283203,0.0117188,1.01563
1481271442927556,0.0742188,-0.0473633,1.04395
1481271442949556,0.0507813,0,1.01855
1481271442966563,0.0078125,-0.00634766,1.04053
1481271442987642,0.0585938,-0.0234375,1.01416
1481271443003560,0.0380859,0.000976563,1.06787
1481271443026200,0.0234375,-0.0224609,1.06104
1481271443047200,0.0571289,-0.0336914,0.976563
1481271443063200,0.0234375,-0.0385742,1.02344
1481271443086269,0.0395508,-0.0366211,1.05322
1481271443107739,0.0244141,-0.0327148,0.96875
1481271443123811,0.0478516,-0.0351563,0.933594
1481271443146753,0.0244141,-0.129395,0.98291
1481271443167755,0.168457,-0.0449219,0.967285
1481271443189834,0.0317383,-0.0380859,1.15527
1481271443206754,0.0610352,-0.0581055,0.974121
1481271443227773,0.0932617,0.0356445,0.997559
1481271443249774,0.0405273,-0.0463867,1.01074
1481271443265782,0.104492,-0.0375977,1.1377
1481271443287880,0.0854492,-0.0253906,1.07373
1481271443310289,0.00537109,0.00683594,0.980469
1481271443325800,0.0288086,0.0170898,0.941895
1481271443347803,0.0410156,0.0151367,1.02979
1481271443369872,0.0698242,-0.0170898,1.03906
1481271443385807,0.114258,0.00878906,1.01807
1481271443409322,0.0771484,0.00244141,1.03467
1481271443429862,0.0878906,0.00292969,1.06396
1481271443445847,-0.00439453,-0.019043,1.03564
1481271443468891,-0.00976563,-0.00634766,0.980469
1481271443489918,0.0849609,0.0112305,1.07178
1481271443505848,0.103027,-0.0556641,1.06934
1481271443529391,0.0429688,0.0283203,1.01611
1481271443550492,0.0742188,0.0131836,1.01074
1481271443565491,0.0703125,-0.046875,1.03613
1481271443589426,0.0444336,0.00878906,1.02881
1481271443610473,0.0200195,0.0703125,1
1481271443634495,0.0825195,-0.000488281,0.995117
1481271443649506,0.122559,-0.0117188,0.993164
1481271443671495,0.107422,-0.0112305,1.05225
1481271443685572,0.0737305,-0.00244141,1.04053
1481271443710589,0.0942383,0.0336914,1.03857
1481271443737213,0.0874023,0.00830078,1.0459
1481271443746106,0.0571289,-0.0112305,1.00098
1481271443777127,0.0849609,-0.0209961,1.00195
1481271443790185,0.0717773,-0.0166016,0.998047
1481271443806174,0.0610352,-0.00292969,1.00049
1481271443828819,0.034668,-0.0151367,0.972168
1481271443849827,0.0410156,-0.00976563,0.987305
1481271443865824,0.0527344,-0.0209961,1.03809
1481271443888818,0.0180664,-0.0185547,1.06494
1481271443911928,0.00341797,-0.0395508,1.04248
1481271443925220,0.0439453,-0.0356445,1.05615
1481271443949137,0.0229492,-0.0561523,1.07617
1481271443978133,0.0551758,-0.0263672,1.03418
1481271443987137,0.103027,-0.0366211,1.05176
1481271444016719,0.0991211,-0.0288086,1.02148
1481271444029728,0.0419922,-0.000976563,1.00342
1481271444054730,0.0522461,-0.0288086,0.969727
1481271444068731,0.0595703,-0.00683594,0.959961
1481271444089747,0.0571289,-0.0224609,0.961914
1481271444105803,0.0708008,-0.0205078,0.976563
1481271444128622,0.0600586,-0.0361328,0.999512
1481271444157688,0.0654297,-0.0263672,1.0083
1481271444165689,0.0742188,-0.0415039,1.01709
1481271444189591,0.0761719,-0.0244141,0.997559
1481271444210095,0.0424805,-0.0375977,1.05811
1481271444226107,0.0683594,-0.0395508,1.01758
1481271444265131,0.0703125,-0.0395508,1.00684
1481271444270129,0.0537109,-0.0424805,0.999023
1481271444294110,0.0898438,-0.046875,1.0415
1481271444308630,0.0854492,-0.0395508,1.05566
1481271444331702,0.0732422,-0.043457,1.02686
1481271444345703,0.0380859,-0.03125,0.988281
1481271444367705,0.0620117,-0.0234375,1.00879
1481271444398707,0.0810547,-0.0234375,1.01465
1481271444405705,0.0825195,-0.0224609,1.01221
1481271444436264,0.078125,-0.0229492,1.01807
1481271444451312,0.0737305,-0.0288086,1.02246
1481271444466308,0.0678711,-0.0258789,1.00977
1481271444488337,0.0922852,-0.0341797,1.0083
1481271444511885,0.0820313,-0.0117188,1.02734
1481271444541334,0.0869141,-0.0385742,1.01563
1481271444548331,0.0766602,-0.0102539,1.02051
1481271444572338,0.0932617,-0.00830078,1.02002
1481271444585334,0.0927734,0.00244141,1.03418
1481271444608336,0.145996,-0.0244141,0.932617
1481271444639363,-0.0209961,-0.0498047,1.04297
1481271444652357,0.0493164,0.0458984,1.01318
1481271444676360,0.106934,-0.0302734,1.0293
1481271444691361,0.0576172,0.015625,1.03613
1481271444714477,0.0585938,-0.0776367,0.970703
1481271444728456,0.0498047,0.0229492,1.00928
1481271444751454,-0.00537109,-0.0327148,1.02344
1481271444780524,0.0302734,-0.0141602,1.03076
1481271444788455,0.0737305,-0.0078125,1.05908
1481271444820468,0.0493164,-0.0302734,1.02881
1481271444832548,0.0532227,-0.00732422,1.06055
1481271444848479,0.043457,-0.0195313,1.01855
1481271444871519,0.0180664,-0.0244141,1.02393
1481271444892485,0.0395508,-0.00976563,1.02441
1481271444915530,0.0463867,-0.0239258,1.02588
1481271444931314,0.105469,-0.00244141,1.00732
1481271444954257,0.115234,-0.0620117,0.980957
1481271444968219,0.0336914,0.0332031,1.01416
1481271444991313,-0.0302734,-0.0126953,1.02295
1481271445020301,-0.200684,-0.00146484,1.04492
1481271445028350,-0.136719,0.0180664,0.998047
1481271445059350,-0.0288086,-0.0517578,0.985352
1481271445097384,-0.120605,-0.027832,1.02197
1481271445099353,-0.233887,-0.00830078,1.00098
1481271445111884,-0.179199,-0.00732422,1.00586
1481271445132547,-0.199707,-0.000488281,0.983887
1481271445148466,-0.222168,-0.0439453,0.95166
1481271445170556,-0.163574,-0.0185547,0.958496
1481271445193470,-0.229004,-0.0209961,1.00488
1481271445208469,-0.401367,-0.000488281,0.915527
1481271445230897,-0.449219,-0.0151367,0.947266
1481271445252956,-0.335449,0.00244141,0.894531
1481271445267931,-0.48584,0.0151367,0.895996
1481271445298901,-0.595215,0.0200195,0.85498
1481271445313917,-0.540527,0.0219727,0.816406
1481271445336469,-0.521973,-0.03125,0.813477
1481271445374582,-0.678711,-0.015625,0.841309
1481271445377513,-0.688477,0.0356445,0.734863
1481271445388473,-0.80127,0.0126953,0.701172
1481271445411040,-0.67334,-0.0102539,0.629883
1481271445441881,-0.713379,-0.0244141,0.604004
1481271445447821,-0.861328,0.0239258,0.586914
1481271445470843,-0.912598,-0.00341797,0.511719
1481271445493818,-0.891113,-0.0424805,0.516113
1481271445507952,-0.832031,0.0473633,0.499512
1481271445531085,-0.902344,0.0673828,0.38623
1481271445554087,-0.897461,-0.0649414,0.350098
1481271445577153,-0.979004,-0.0131836,0.306641
1481271445591090,-1.07568,-0.0102539,0.255371
1481271445614103,-0.950684,-0.0576172,0.281738
1481271445653232,-0.946777,-0.0146484,0.27832
1481271445657169,-1.01025,0.0126953,0.166504
1481271445681212,-1.01807,-0.0610352,0.194824
1481271445695174,-1.03223,-0.00292969,0.0883789
1481271445719180,-0.994141,-0.0419922,0.0639648
1481271445733694,-1.06299,0.0332031,0.0371094
1481271445754691,-0.953613,0.00634766,0.065918
1481271445770742,-0.986328,-0.0141602,0.0385742
1481271445793693,-1.06445,0.015625,-0.0561523
1481271445822708,-1.0166,-0.0185547,-0.0405273
1481271445830717,-0.990723,0.0224609,-0.074707
1481271445853783,-0.964844,0.00292969,-0.0341797
1481271445874716,-1.02148,0.0253906,-0.103516
1481271445890721,-1.05713,-0.0219727,-0.18457
1481271445929778,-1.03027,0.0224609,-0.17334
1481271445934809,-1.01123,-0.00634766,-0.168945
1481271445958753,-0.985352,-0.000976563,-0.182129
1481271445973746,-0.992676,0.000488281,-0.174805
1481271445996748,-1.00195,0.00195313,-0.178223
1481271446011254,-1.02734,0.0219727,-0.17334
1481271446034456,-1.02295,-0.0292969,-0.16748
1481271446062446,-0.972168,0.0112305,-0.210938
1481271446071481,-0.986816,-0.0229492,-0.158691
1481271446101418,-0.992676,-0.0185547,-0.162598
1481271446115515,-0.97998,-0.00439453,-0.168457
1481271446130949,-1.02393,-0.0380859,-0.133789
1481271446153043,-0.98584,-0.0131836,-0.145508
1481271446174945,-0.926758,0.00292969,-0.166504
1481271446204951,-0.996582,-0.0292969,-0.118652
1481271446213450,-0.994629,-0.0102539,-0.127441
1481271446237082,-1.01904,0.000488281,-0.103027
1481271446250962,-0.993652,-0.0141602,-0.126465
1481271446273004,-1.00684,-0.027832,-0.128906
1481271446303966,-0.997559,-0.0419922,-0.13623
1481271446310976,-0.962891,-0.00244141,-0.103027
1481271446342030,-0.996582,-0.00439453,-0.0825195
1481271446356088,-0.992676,-0.0307617,-0.119629
1481271446378988,-1.01904,-0.0102539,-0.149902
1481271446393061,-1.021,-0.0107422,-0.144043
1481271446416504,-0.955078,-0.015625,-0.097168
1481271446430957,-0.974121,-0.0444336,-0.102539
1481271446453081,-0.97998,-0.0151367,-0.12793
1481271446485023,-1.00342,-0.034668,-0.108398
1481271446490959,-1.00684,-0.0151367,-0.125488
1481271446513973,-1.03027,-0.0126953,-0.125977
1481271446536062,-0.955566,-0.0166016,-0.107422
1481271446550985,-0.962891,-0.0141602,-0.0932617
1481271446581118,-0.992676,0.00830078,-0.116699
1481271446596055,-0.991211,-0.015625,-0.130859
1481271446619500,-1.02881,0.0102539,-0.0976563
1481271446640116,-0.996094,-0.027832,-0.0917969
1481271446657065,-0.976563,0.0078125,-0.0991211
1481271446671015,-1.01123,-0.0136719,-0.107422
1481271446694015,-1.01172,-0.00244141,-0.119141
1481271446724595,-1.01855,-0.00341797,-0.101074
1481271446731036,-0.990723,-0.00683594,-0.104004
1481271446762074,-0.985352,-0.0273438,-0.100098
1481271446776103,-1.00293,0.00683594,-0.0927734
1481271446798047,-1.00098,-0.0219727,-0.0976563
1481271446813554,-0.992676,-0.00537109,-0.0908203
1481271446836126,-0.981445,-0.00683594,-0.124023
1481271446859057,-0.991211,-0.015625,-0.0942383
1481271446873101,-0.999023,0.00830078,-0.100586
1481271446897123,-0.98291,-0.0175781,-0.0996094
1481271446918074,-1.01221,0.00195313,-0.0961914
1481271446933896,-0.975098,-0.0219727,-0.0908203
1481271446956985,-0.978027,-0.012207,-0.10791
1481271446977967,-1,0.00195313,-0.0917969
1481271447001943,-1.00049,-0.00634766,-0.0986328
1481271447016953,-0.992676,-0.00732422,-0.0927734
1481271447039915,-1.00146,-0.00146484,-0.100586
1481271447053851,-0.986328,-0.0131836,-0.0839844
1481271447075850,-0.994629,-0.0161133,-0.107422
1481271447104852,-1.00146,-0.019043,-0.0883789
1481271447113364,-1.01514,-0.0126953,-0.10498
1481271447136475,-1.01074,-0.00927734,-0.0981445
1481271447157475,-0.995605,-0.0107422,-0.0942383
1481271447173473,-0.979492,0.00634766,-0.0917969
1481271447195513,-1.00537,-0.0126953,-0.101074
1481271447218991,-0.994141,-0.00439453,-0.108887
1481271447241000,-0.961426,-0.00585938,-0.10498
1481271447255997,-0.998047,-0.00146484,-0.0908203
1481271447279004,-0.997559,-0.0170898,-0.0893555
1481271447318013,-1.00928,0,-0.0898438
1481271447323100,-1.00781,0.00390625,-0.103027
1481271447346054,-1.01416,-0.0141602,-0.116211
1481271447353025,-0.989746,-0.000976563,-0.10498
1481271447384025,-1.0083,-0.0151367,-0.0961914
1481271447399022,-1.00439,-0.0151367,-0.0756836
1481271447414036,-1.00342,-0.00878906,-0.0844727
1481271447435794,-1.00586,-0.0214844,-0.0981445
1481271447458796,-1.00049,0.00195313,-0.0825195
1481271447472805,-1.00635,-0.0219727,-0.0859375
1481271447495798,-1.01172,-0.00390625,-0.0810547
1481271447519315,-0.978516,-0.0195313,-0.0600586
1481271447533093,-1.00439,-0.015625,-0.0805664
1481271447556091,-1.01514,-0.0180664,-0.0625
1481271447579092,-1.01758,-0.0161133,-0.0629883
1481271447600095,-1.0127,-0.0146484,-0.0454102
1481271447616109,-1.021,-0.0317383,-0.0639648
1481271447638717,-1.00488,-0.0366211,-0.0166016
1481271447661620,-1.0376,-0.0473633,-0.0141602
1481271447675621,-1.04443,-0.0498047,0.0322266
1481271447698645,-1.03076,-0.0429688,0.0351563
1481271447720133,-0.981934,-0.0249023,0.0942383
1481271447735643,-0.986816,-0.00830078,0.111816
1481271447758646,-0.984863,-0.0185547,0.168945
1481271447779645,-1.00195,-0.0322266,0.174805
1481271447795647,-1.00439,-0.00341797,0.185059
1481271447819181,-1.00195,-0.0170898,0.227539
1481271447839749,-0.978027,-0.0209961,0.233887
1481271447855691,-0.974121,-0.0327148,0.228027
1481271447878820,-1.03711,0.00488281,0.333984
1481271447899695,-0.977051,0.0166016,0.333496
1481271447916235,-0.936035,0.00341797,0.330078
1481271447939494,-0.968262,0.00585938,0.369629
1481271447959500,-1.0166,0,0.421875
1481271447975561,-0.973145,-0.0253906,0.408691
1481271447998505,-0.862793,0.00585938,0.436035
1481271448020548,-0.836914,0.00585938,0.491699
1481271448036020,-0.865234,-0.00292969,0.539551
1481271448058027,-0.861328,0.00390625,0.532715
1481271448080106,-0.82666,0.0258789,0.620605
1481271448096023,-0.795898,-0.0273438,0.605957
1481271448118538,-0.757813,0.0302734,0.637207
1481271448140119,-0.714844,0.0102539,0.637207
1481271448156045,-0.759277,0.0112305,0.663574
1481271448169136,-0.708496,-0.019043,0.639648
1481271448192046,-0.727539,0.0185547,0.744629
1481271448215571,-0.671875,-0.0126953,0.773926
1481271448229068,-0.575684,0.0219727,0.750977
1481271448252070,-0.589355,-0.0107422,0.82373
1481271448275074,-0.641602,0.0136719,0.778809
1481271448289072,-0.616211,-0.0126953,0.858887
1481271448312630,-0.557617,-0.027832,0.891602
1481271448334656,-0.489746,-0.0385742,0.901367
1481271448349656,-0.396484,0.00390625,0.902344
1481271448371738,-0.457031,-0.0219727,0.865723
1481271448394659,-0.47168,0.00292969,0.910645
1481271448410658,-0.422363,-0.0078125,0.911621
1481271448431958,-0.297363,0.000488281,0.937988
1481271448454880,-0.310547,-0.0605469,0.94043
1481271448477910,-0.343262,0.00537109,0.9375
1481271448491887,-0.322754,-0.0390625,0.979492
1481271448515472,-0.258301,-0.0307617,1.01709
1481271448537432,-0.234863,-0.0551758,0.967285
1481271448552420,-0.234375,-0.046875,0.958984
1481271448583479,-0.18457,-0.00488281,0.987793
1481271448597418,-0.0791016,-0.0141602,1.03418
1481271448611933,-0.0625,0.0107422,1.03027
1481271448634062,-0.0639648,-0.012207,1.00684
1481271448658104,-0.0112305,0.0327148,0.98291
1481271448672154,-0.0209961,0.00439453,1.04395
1481271448694065,-0.0288086,0.0200195,1.03711
1481271448717675,-0.260254,-0.115723,1.00684
1481271448731716,-0.225586,-0.0473633,0.900391
1481271448754843,0.0693359,0.0209961,1.00684
1481271448777708,0.0825195,-0.0810547,1.04199
1481271448791755,-0.0195313,-0.0458984,1.03027
1481271448814838,-0.00830078,-0.0375977,0.974121
1481271448837868,0.0302734,-0.046875,0.999512
1481271448860799,0.0400391,-0.0493164,1.03564
1481271448874787,0.12207,-0.0410156,0.970215
1481271448897866,0.194824,-0.00146484,1.02393
1481271448912313,0.154785,-0.00927734,1.09912
1481271448934491,0.0834961,-0.0219727,1.00635
1481271448965492,0.193848,-0.0419922,0.970703
1481271448971489,0.0688477,0.0649414,1.09473
1481271448994494,0.116211,-0.0795898,1.00684
1481271449018082,0.0712891,-0.0419922,1.00635
1481271449032056,0.0864258,-0.0131836,0.98584
1481271449054037,0.111328,-0.0366211,1.03857
1481271449077039,0.143555,-0.0078125,1.01953
1481271449092036,0.123047,-0.0185547,1.03027
1481271449114573,0.0893555,-0.0161133,1
1481271449138677,0.151367,-0.0151367,1.06592
1481271449151612,0.116211,-0.0141602,1.02344
1481271449174676,0.0810547,-0.0151367,0.983398
1481271449197643,0.106934,-0.0161133,0.992188
1481271449211641,0.113281,-0.03125,1.02686
1481271449234025,0.128906,-0.000976563,0.99707
1481271449258075,0.119141,-0.0126953,0.995605
1481271449272028,0.123047,-0.00585938,1.04248
1481271449294031,0.0991211,0.00146484,1.0166
1481271449318065,0.0981445,-0.0166016,0.999023
1481271449332049,0.0957031,-0.00927734,1.01758
1481271449354051,0.132324,0.00439453,0.997559
1481271449377055,0.137695,-0.00927734,1.01318
1481271449392054,0.126465,-0.0219727,1.01758
1481271449416137,0.116211,-0.015625,1.00293
1481271449437146,0.102539,-0.0131836,0.999023
1481271449452228,0.0981445,-0.0219727,1.02393
1481271449474155,0.104004,-0.00292969,1.01123
1481271449497231,0.132324,-0.0107422,1.00684
1481271449512318,0.153809,-0.0107422,1.02148
1481271449535937,0.119629,-0.019043,1.00146
1481271449566037,0.146484,-0.00537109,1.02197
1481271449572025,0.138184,-0.0112305,1.0083
1481271449603019,0.14502,-0.0410156,0.976563
1481271449618000,0.12207,-0.0166016,0.974121
1481271449633457,0.168945,0.0288086,1.03809
1481271449654539,0.214355,-0.0288086,1
1481271449677542,0.206543,-0.015625,0.99707
1481271449692460,0.280762,-0.0292969,0.996582
1481271449714479,0.303223,-0.0405273,0.98291
1481271449737185,0.232422,-0.0473633,0.941895
1481271449752198,0.256836,-0.0507813,0.945801
1481271449776111,0.243164,0.015625,0.958008
1481271449814140,0.342285,-0.0439453,0.935547
1481271449816638,0.471191,-0.0180664,0.902344
1481271449842648,0.487305,-0.00634766,0.860352
1481271449857654,0.502441,-0.00390625,0.888184
1481271449879717,0.480469,-0.0224609,0.849121
1481271449894732,0.54248,0.0170898,0.849121
1481271449917665,0.616211,-0.00732422,0.855957
1481271449932336,0.604492,-0.0166016,0.80127
1481271449954281,0.634277,-0.00244141,0.764648
1481271449986334,0.578125,0.000976563,0.74707
1481271449992208,0.626465,-0.00976563,0.767578
1481271450016252,0.660156,-0.000488281,0.732422
1481271450037779,0.762695,-0.0356445,0.709473
1481271450053700,0.794922,-0.00244141,0.634277
1481271450090708,0.680664,-0.0112305,0.603516
1481271450096701,0.772461,-0.0200195,0.610352
1481271450120296,0.845215,0.0117188,0.565918
1481271450134858,0.773926,-0.00732422,0.533691
1481271450158869,0.870605,0.0253906,0.495117
1481271450171805,0.937012,-0.0170898,0.499512
1481271450197807,0.84375,0.0234375,0.417969
1481271450225822,0.948242,0.00927734,0.407715
1481271450231827,0.984375,0.00195313,0.393555
1481271450265830,0.882813,0.00683594,0.358398
1481271450276832,0.922852,-0.00634766,0.368164
1481271450299834,0.97168,0.00292969,0.350098
1481271450314926,0.930176,0.00537109,0.291016
1481271450336518,0.858398,-0.0166016,0.263672
1481271450377618,0.925781,0.015625,0.285156
1481271450382515,0.960938,-0.0117188,0.277832
1481271450398516,0.833984,-0.0078125,0.20459
1481271450420565,0.991211,0.0439453,0.175781
1481271450436044,0.915039,-0.0078125,0.111328
1481271450467044,0.989746,-0.0947266,0.233398
1481271450480059,1.06836,0.0332031,0.00878906
1481271450503106,0.984863,-0.0078125,-0.0249023
1481271450517106,0.98584,-0.00927734,-0.0170898
1481271450540098,1.021,-0.0332031,0.00927734
1481271450554208,1.00586,0.0170898,-0.0268555
1481271450586170,0.991211,0.0136719,-0.081543
1481271450608103,0.983887,-0.0126953,-0.0522461
1481271450614612,1.02051,-0.0195313,-0.0571289
1481271450647794,1.04395,-0.0307617,-0.0874023
1481271450659789,0.941895,-0.0175781,-0.179199
1481271450675790,0.977051,-0.00976563,-0.179199
1481271450696795,0.959961,-0.0219727,-0.161621
1481271450720509,0.992188,0.0151367,-0.15918
1481271450743465,1.01172,-0.0361328,-0.174316
1481271450756465,1.02441,0.0395508,-0.183594
1481271450779488,0.995605,-0.00292969,-0.149902
1481271450794464,0.930664,0.0209961,-0.166016
1481271450818497,0.969238,-0.00537109,-0.150879
1481271450848508,0.967285,0.00732422,-0.188477
1481271450854507,1.01074,-0.0136719,-0.170898
1481271450885543,0.947266,0.0126953,-0.226074
1481271450899568,0.962402,0.00341797,-0.176758
1481271450925532,0.968262,0.0107422,-0.133301
1481271450937312,0.935059,0.00341797,-0.164063
1481271450960285,0.996582,0.0117188,-0.147949
1481271450974215,0.969727,0.0161133,-0.160645
1481271450997212,0.962891,0.00585938,-0.182129
1481271451029310,0.933105,0.0136719,-0.167969
1481271451034453,0.929688,0.0102539,-0.138184
1481271451058458,0.968262,-0.00439453,-0.143555
1481271451096534,0.958008,0.0102539,-0.162109
1481271451098472,0.938477,0.015625,-0.174805
1481271451125533,0.988281,0.0175781,-0.132324
1481271451139714,0.969238,0.0166016,-0.162598
1481271451162629,0.995605,0.00878906,-0.158691
1481271451201633,1.0127,0.0200195,-0.143555
1481271451203629,1.01709,0.0151367,-0.146484
1481271451214629,0.980957,0.0166016,-0.143555
1481271451237153,0.919434,0.027832,-0.13916
1481271451268151,0.987793,0.0136719,-0.10791
1481271451274154,0.989746,0.0195313,-0.106934
1481271451298152,0.984863,0.00537109,-0.0830078
1481271451319665,0.981934,0.0385742,-0.0966797
1481271451337841,0.991211,0.0200195,-0.0898438
1481271451356846,0.980469,0.00830078,-0.0961914
1481271451379976,0.919922,0.0185547,-0.0576172
1481271451402875,0.97168,-0.00634766,-0.0166016
1481271451417364,1.00342,0.0288086,-0.0200195
1481271451440929,1.03369,0.00585938,-0.0288086
1481271451455044,1.00879,0.0146484,-0.0371094
1481271451485009,0.96875,0.0322266,-0.0112305
1481271451507942,0.996094,0.0375977,0.046875
1481271451513934,1.02686,0.00488281,0.0615234
1481271451544577,1.01807,-0.00878906,0.0415039
1481271451559563,0.963867,-0.00390625,0.0605469
1481271451577560,0.962891,0.00341797,0.0957031
1481271451596642,1.01611,0.0405273,0.129883
1481271451619574,1.02783,-0.00927734,0.119141
1481271451659108,1.08398,-0.0107422,0.163086
1481271451661109,1.08936,0.0332031,0.197754
1481271451681114,0.892578,0.0258789,0.252441
1481271451694137,0.898438,0.0253906,0.339355
1481271451718639,0.948242,-0.0117188,0.328125
1481271451758178,0.87207,-0.0419922,0.356934
1481271451762177,0.749512,0.00195313,0.413574
1481271451793180,0.8125,0.0527344,0.520996
1481271451799181,0.854004,0.0307617,0.555664
1481271451824310,0.836426,-0.034668,0.518555
1481271451836871,0.837891,-0.00390625,0.513184
1481271451859859,0.769043,0.0327148,0.593262
1481271451875792,0.797852,0.0488281,0.606934
1481271451896875,0.815918,0.0229492,0.637207
1481271451927809,0.806152,0.00732422,0.626465
1481271451935821,0.735352,-0.0170898,0.668457
1481271451958852,0.67041,0.00537109,0.713867
1481271451979895,0.682129,0.00390625,0.731934
1481271451996888,0.702148,-0.0249023,0.776855
1481271452034451,0.682617,0.0161133,0.857422
1481271452039530,0.475586,-0.0786133,0.810059
1481271452063450,0.460449,0.0361328,0.858398
1481271452076476,0.421387,0.0107422,0.890625
1481271452101517,0.273926,-0.00585938,0.908691
1481271452116128,0.260742,-0.0351563,0.885742
1481271452137221,0.329102,0.046875,0.972656
1481271452167221,0.341797,-0.000488281,0.978027
1481271452182144,0.214355,-0.0478516,0.967773
1481271452205142,0.211914,-0.0249023,0.947754
1481271452219650,0.274414,-0.0532227,0.966309
1481271452241710,0.24707,0.0126953,0.989258
1481271452256718,0.144531,-0.043457,0.987793
1481271452279713,0.164551,-0.0444336,1.05029
1481271452312748,0.129883,-0.0249023,0.972656
1481271452317228,0.034668,-0.0439453,0.963379
1481271452340765,0.0737305,-0.0166016,0.984863
1481271452361766,0.0449219,-0.00878906,0.9375
1481271452379766,-0.105957,-0.00585938,0.992188
1481271452407767,-0.110352,0.0258789,1.01221
1481271452422328,-0.078125,-0.0146484,0.960449
1481271452445349,-0.106934,0.00830078,0.931641
1481271452459324,-0.175293,0.0117188,1.04688
1481271452483514,-0.132324,0.0136719,1.05273
1481271452496517,-0.0732422,0.0102539,1.07764
1481271452520029,-0.0961914,0.00146484,1.04297
1481271452536069,-0.0776367,-0.0102539,1.03174
1481271452557072,-0.0644531,-0.0151367,1.03613
1481271452590100,-0.14209,-0.0131836,1.03857
1481271452602179,-0.0634766,-0.0175781,1.05518
1481271452620079,-0.0463867,-0.00976563,1.04785
1481271452639139,-0.0585938,-0.0107422,1.04883
1481271452662202,-0.0664063,-0.0131836,1.00293
1481271452685201,-0.0620117,-0.015625,0.993652
1481271452699152,-0.0581055,-0.00244141,1.04883
1481271452723730,-0.0761719,-0.00683594,1.03027
1481271452744605,-0.0634766,-0.0136719,1.01709
1481271452760619,-0.0424805,0.000488281,1.00928
1481271452790600,-0.074707,-0.015625,1.0127
1481271452798527,-0.0761719,-0.0161133,1.01367
1481271452828065,-0.0537109,-0.00878906,1.04297
1481271452842058,-0.0458984,-0.0200195,1.01318
1481271452867063,-0.0717773,-0.0161133,1.00537
1481271452879060,-0.0810547,-0.00537109,1.00928
1481271452902136,-0.0869141,-0.0170898,1.00928
1481271452918669,-0.0742188,-0.019043,1.04443
1481271452939727,-0.0424805,-0.0214844,1.02148
1481271452963724,-0.0454102,-0.0341797,1.02295
1481271452978725,-0.0454102,-0.0395508,1.03613
1481271453001743,-0.0493164,-0.0493164,1.05127
1481271453022315,-0.0361328,-0.0615234,1.01514
1481271453040313,-0.0522461,-0.0810547,1.0376
1481271453067395,-0.0297852,-0.081543,1.0459
1481271453082329,-0.0385742,-0.0976563,0.987793
1481271453106324,-0.0639648,-0.103027,1.03027
1481271453119899,-0.0322266,-0.124512,1.02197
1481271453144872,0.00732422,-0.144043,1.00879
1481271453158940,-0.012207,-0.145508,1.01904
1481271453180004,-0.00146484,-0.180664,1.01221
1481271453209873,0.000488281,-0.159668,0.979004
1481271453218385,-0.0361328,-0.20459,1.01514
1481271453242397,-0.0141602,-0.179688,0.986816
1481271453262433,0.000976563,-0.262207,0.989746
1481271453279462,0.0263672,-0.272949,1.02344
1481271453302401,-0.0200195,-0.253418,0.984863
1481271453322493,-0.0205078,-0.293457,0.967773
1481271453346454,0.00585938,-0.291992,0.945313
1481271453359434,-0.019043,-0.33252,0.968262
1481271453383482,-0.00244141,-0.397949,0.932617
1481271453398426,0.0400391,-0.362305,0.923828
1481271453422435,0.00585938,-0.397461,0.90918
1481271453450539,0.0219727,-0.447754,0.944824
1481271453458447,0.0219727,-0.460449,0.852051
1481271453487446,0.0405273,-0.468262,0.82959
1481271453502514,-0.00146484,-0.617188,0.811523
1481271453519954,0.000488281,-0.539551,0.854492
1481271453539464,-0.0200195,-0.588867,0.843262
1481271453562531,0.00878906,-0.592285,0.753418
1481271453579466,-0.0107422,-0.714355,0.739258
1481271453599486,-0.0717773,-0.743164,0.775391
1481271453621975,0.00146484,-0.720703,0.786621
1481271453638488,0.0336914,-0.686523,0.662109
1481271453659503,0.000488281,-0.741699,0.620117
1481271453683489,-0.0239258,-0.791016,0.666016
1481271453698493,0.0239258,-0.88623,0.73291
1481271453721113,0.0385742,-0.85498,0.548828
1481271453741645,0.000976563,-0.777344,0.507324
1481271453758646,-0.0249023,-0.806641,0.485352
1481271453780718,0.03125,-0.933594,0.521484
1481271453801717,0.0131836,-0.966797,0.436035
1481271453818666,0.0117188,-0.876465,0.406738
1481271453840724,0.0429688,-0.956055,0.371582
1481271453861732,-0.0366211,-1.07764,0.427246
1481271453878727,-0.0185547,-0.991211,0.317383
1481271453900798,0.0366211,-1,0.256348
1481271453924842,0.00537109,-0.94043,0.236328
1481271453938951,0.000976563,-0.958496,0.27832
1481271453960895,0,-1.09424,0.208496
1481271453981894,-0.0175781,-1.00244,0.185547
1481271454003976,-0.0136719,-1.04541,0.157227
1481271454021477,0.0268555,-0.95459,0.0952148
1481271454042491,0.00976563,-0.982422,0.142578
1481271454064451,-0.0507813,-1.05859,0.101074
1481271454081494,0.00927734,-1.03711,0.0444336
1481271454102529,-0.00488281,-0.989258,0.059082
1481271454133009,-0.00292969,-0.987793,0.0429688
1481271454141199,-0.0234375,-1.03076,0.00732422
1481271454162295,0.0209961,-0.995605,-0.00146484
1481271454184215,0.00488281,-0.994629,-0.0131836
1481271454201209,-0.0263672,-0.97168,-0.0800781
1481271454222215,0.00927734,-0.998047,-0.0874023
1481271454244731,0.00537109,-0.942383,-0.103516
1481271454260726,0.00146484,-0.96875,-0.101074
1481271454281732,0.0234375,-1.01318,-0.0795898
1481271454304800,0.0288086,-0.970215,-0.150879
1481271454321238,0.0078125,-1.00146,-0.145996
1481271454341751,0.0175781,-0.905273,-0.210938
1481271454364753,0.0405273,-1.02881,-0.146973
1481271454380759,0.00878906,-1.07129,-0.205566
1481271454401829,-0.0200195,-1.04346,-0.234863
1481271454424763,0.0224609,-0.988281,-0.213867
1481271454441528,0.00878906,-0.988281,-0.208496
1481271454462627,0.0234375,-1.01367,-0.205566
1481271454484523,-0.00585938,-1.04883,-0.197754
1481271454500531,0.00488281,-0.987793,-0.203125
1481271454522579,0.0166016,-0.979004,-0.188477
1481271454544005,-0.00732422,-0.967285,-0.203613
1481271454560926,0.00732422,-0.985352,-0.187988
1481271454582999,0.0273438,-0.981934,-0.171875
1481271454605049,0.0117188,-1.00879,-0.17627
1481271454621010,0.000488281,-0.995117,-0.18457
1481271454641519,0.0131836,-1.01123,-0.164063
1481271454664590,0.00439453,-0.986328,-0.204102
1481271454681590,0.0214844,-1.00293,-0.167969
1481271454703524,0.00537109,-1.00146,-0.149414
1481271454724541,0.0268555,-0.996094,-0.165527
1481271454741583,0.0112305,-0.995117,-0.163086
1481271454763549,-0.00146484,-0.960938,-0.165039
1481271454784555,-0.00830078,-0.973145,-0.178711
1481271454801615,0.00537109,-1.01123,-0.171387
1481271454823577,0.0307617,-1.02295,-0.13916
1481271454844119,0.0185547,-0.998047,-0.167969
1481271454861116,-0.0107422,-0.961914,-0.199219
1481271454883123,0.00146484,-0.988281,-0.163574
1481271454904219,0.0239258,-0.986328,-0.136719
1481271454921308,0.0405273,-1.02881,-0.117188
1481271454943405,0.0102539,-0.988281,-0.135742
1481271454967412,-0.012207,-0.964355,-0.165039
1481271454980500,-0.0229492,-0.995605,-0.155762
1481271455003399,-0.00439453,-0.998535,-0.121582
1481271455024948,0.0229492,-0.995117,-0.134766
1481271455041488,0.0166016,-0.989258,-0.128418
1481271455070558,0.00390625,-0.98877,-0.143066
1481271455084552,-0.0151367,-0.995117,-0.143066
1481271455101516,-0.0112305,-1.01855,-0.125
1481271455123548,-0.00488281,-1.00781,-0.108887
1481271455144060,-0.0078125,-1.01514,-0.108887
1481271455161058,-0.00439453,-1.00635,-0.122559
1481271455183099,0.00195313,-0.990723,-0.120605
1481271455204065,-0.03125,-1.01074,-0.117188
1481271455221152,0.0175781,-1.0249,-0.0893555
1481271455245158,-0.0117188,-1.01367,-0.0898438
1481271455264158,-0.012207,-1.00732,-0.104004
1481271455281159,-0.015625,-0.998535,-0.10791
1481271455303232,0.000488281,-1.01416,-0.0761719
1481271455324670,-0.0078125,-1.0083,-0.0424805
1481271455340707,-0.0185547,-1.01123,-0.0458984
1481271455363715,-0.0102539,-1.01123,-0.034668
1481271455384792,-0.0415039,-1.00293,-0.00683594
1481271455400779,-0.0209961,-1.0498,0.00585938
1481271455423722,-0.00732422,-1.01514,0.0209961
1481271455444866,0.0175781,-1.02539,-0.00439453
1481271455460763,-0.0644531,-0.970703,0.0732422
1481271455483834,-0.0307617,-1.0835,0.0771484
1481271455504900,-0.0170898,-1.02832,0.172363
1481271455521363,-0.0112305,-1.05322,0.160156
1481271455543087,-0.0126953,-1.03418,0.148438
1481271455566070,-0.0380859,-0.964355,0.240234
1481271455581071,-0.0581055,-0.967773,0.271484
1481271455605076,-0.0844727,-0.996094,0.347168
1481271455642633,-0.0791016,-0.95166,0.358887
1481271455646607,-0.0678711,-0.96582,0.433105
1481271455670653,-0.0336914,-0.958008,0.440918
1481271455685637,-0.059082,-0.851074,0.460449
1481271455708598,-0.0527344,-0.886719,0.499512
1481271455723608,-0.0527344,-0.857422,0.554688
1481271455745623,-0.0605469,-0.788574,0.627441
1481271455762618,-0.0776367,-0.820801,0.684082
1481271455783619,0.00195313,-0.79541,0.67334
1481271455813621,-0.0361328,-0.713379,0.70166
1481271455827137,-0.0961914,-0.661621,0.730957
1481271455844646,-0.0561523,-0.588379,0.810547
1481271455865650,-0.00341797,-0.649414,0.806152
1481271455886655,-0.0078125,-0.557617,0.820801
1481271455918717,-0.0351563,-0.609375,0.80957
1481271455926163,-0.00488281,-0.493652,0.885742
1481271455949673,-0.00488281,-0.496582,0.929688
1481271455963675,-0.0239258,-0.424805,0.918457
1481271455987676,-0.0473633,-0.456055,0.920898
1481271456015680,0.00634766,-0.413574,0.908691
1481271456022695,0.00976563,-0.369141,0.955078
1481271456052783,-0.0253906,-0.32666,0.950684
1481271456067798,-0.00830078,-0.325195,0.944824
1481271456089771,-0.0288086,-0.300293,0.976074
1481271456105721,-0.0229492,-0.261719,1.01416
1481271456127854,0.0507813,-0.281738,0.95752
1481271456142950,0.0253906,-0.282227,0.952637
1481271456164865,-0.00439453,-0.23291,0.973145
1481271456196920,0.0307617,-0.188477,1.03418
1481271456202933,0.0742188,-0.218262,0.949707
1481271456226437,0.065918,-0.102051,1.02832
1481271456248018,0.0561523,-0.173828,0.990723
1481271456263948,-0.00146484,-0.131348,1.02539
1481271456293014,0.0644531,-0.0795898,1.03955
1481271456308018,0.0664063,-0.0786133,1.00293
1481271456330525,0.0546875,-0.0493164,0.987793
1481271456345080,0.0683594,-0.0844727,1.02686
1481271456368983,0.0991211,-0.0341797,1.02979
1481271456383045,0.0834961,-0.0112305,1.04395
1481271456405075,0.0834961,-0.0263672,0.994141
1481271456435504,0.0698242,-0.00683594,1.01318
1481271456442687,0.065918,0.0249023,0.995117
1481271456473721,0.0390625,0.0366211,1.03027
1481271456487779,0.074707,0.0283203,1.02148
1481271456504694,0.0874023,0.0600586,1.03027
1481271456525199,0.106934,0.0830078,0.993652
1481271456547226,0.0805664,0.0600586,1.01514
1481271456570212,0.0566406,0.0341797,1.01367
1481271456585302,0.0649414,0.0605469,0.991699
1481271456609211,0.0615234,0.0405273,1.05127
1481271456622722,0.0527344,0.0327148,1.01514
1481271456646305,0.0585938,0.027832,1.02832
1481271456675332,0.0791016,0.00878906,0.987305
1481271456684314,0.0463867,0.0180664,1.00635
1481271456712398,0.0708008,0.0239258,1.021
1481271456751869,0.0820313,0.043457,1.02881
1481271456754866,0.0742188,0.0117188,1.01953
1481271456764970,0.0585938,-0.00292969,1.00781
1481271456787953,0.0405273,-0.00146484,1.00732
1481271456803879,0.0742188,0.0102539,1.04492
1481271456825527,0.0654297,0.00390625,1.02344
1481271456851066,0.0693359,0.00341797,1.02441
1481271456863999,0.0390625,-0.0107422,1.02246
1481271456887069,0.0556641,-0.0117188,1.03369
1481271456908068,0.0732422,-0.00537109,1.03809
1481271456924597,0.0493164,0.00244141,1.04883
1481271456953252,0.0541992,-0.00439453,1.01367
1481271456968270,0.0512695,0.00341797,0.980469
1481271456991209,0.0361328,0.0195313,1.01807
1481271457030240,0.0175781,0.00488281,1.03027
1481271457032278,0.03125,0.0151367,1.03516
1481271457044543,0.0180664,0.012207,1.01904
1481271457065611,0.0449219,0.00634766,1.03613
1481271457095585,0.0292969,0.0107422,1.0083
1481271457104568,0.0424805,0.00976563,0.996094
1481271457128142,0.0341797,0.00341797,1
1481271457147666,0.0390625,0.0180664,1.03857
1481271457163765,0.0268555,0.0180664,1.03467
1481271457184665,0.0317383,0.0258789,1.02148
1481271457207663,0.00927734,0.00341797,1.01758
1481271457231676,0.0605469,0.0405273,1.00391
1481271457245189,0.0332031,0.034668,1.03857
1481271457269189,0.0302734,0.0244141,1.0625
1481271457283192,0.0556641,0.0419922,1.00781
1481271457305197,0.0375977,0.0341797,0.985352
1481271457335211,0.0205078,0.0712891,1.01416
1481271457350373,0.0175781,0.0893555,1.02686
1481271457373220,0.0229492,0.0507813,0.994629
1481271457388238,0.0458984,0.115234,1.04785
1481271457412285,0.0302734,0.0996094,0.990234
1481271457425314,-0.0161133,0.143555,1.01904
1481271457447854,-0.0234375,0.141113,1.0083
1481271457477866,0.00244141,0.166504,1.02197
1481271457484932,0.0161133,0.219727,0.976074
1481271457508921,-0.00537109,0.184082,0.954102
1481271457530376,0.0185547,0.233887,0.974121
1481271457547027,-0.034668,0.291992,1.00732
1481271457582966,-0.0131836,0.287109,1.00049
1481271457589961,-0.0351563,0.383789,0.963379
1481271457606088,-0.03125,0.398926,0.911621
1481271457628036,-0.0639648,0.40625,0.875
1481271457651096,-0.109863,0.452148,0.913574
1481271457667080,-0.0874023,0.493164,0.915039
1481271457688098,-0.0405273,0.50293,0.868652
1481271457718152,-0.0288086,0.547852,0.853027
1481271457727069,-0.0576172,0.580078,0.873535
1481271457755140,-0.0605469,0.539551,0.789551
1481271457770215,-0.10498,0.601563,0.810547
1481271457787204,-0.0336914,0.63916,0.790527
1481271457807142,-0.0107422,0.637207,0.711426
1481271457830689,-0.0634766,0.69043,0.735352
1481271457863214,-0.0400391,0.720215,0.677734
1481271457867217,-0.00292969,0.762695,0.67627
1481271457899214,-0.0634766,0.794922,0.643555
1481271457907279,0.0258789,0.809082,0.584473
1481271457929301,-0.000976563,0.854004,0.585449
1481271457967657,0.0249023,0.896484,0.539063
1481271457969630,-0.000488281,0.877441,0.475586
1481271457994662,0.0229492,0.910156,0.450195
1481271458009635,-0.00439453,0.897461,0.418457
1481271458034647,-0.0771484,0.931641,0.438477
1481271458047790,0.0292969,0.882324,0.359863
1481271458069802,0.00146484,0.937012,0.369141
1481271458086684,0.0546875,0.938965,0.311523
1481271458107690,0.0444336,0.929199,0.29248
1481271458139777,0.00634766,0.885254,0.223145
1481271458146745,0.0209961,0.979004,0.263184
1481271458169782,0.0786133,0.931152,0.203125
1481271458189744,0.0683594,0.895508,0.17041
1481271458206745,0.0678711,0.942383,0.158203
1481271458235321,0.0424805,1.01416,0.154785
1481271458249970,0.00488281,0.97998,0.132813
1481271458273971,-0.00439453,1.06543,0.179199
1481271458288039,0.00146484,1.01563,0.153809
1481271458312043,0.09375,1.01416,0.0952148
1481271458327055,0.0185547,1.00244,0.110352
1481271458347583,0.0078125,1.03906,0.102539
1481271458377608,0.0449219,1.09961,0.0761719
1481271458386532,0.0961914,0.931641,0.027832
1481271458416512,0.0629883,1.08252,0.0673828
1481271458430603,0.0361328,1.07324,0.0732422
1481271458446604,-0.00244141,1.00781,0.0561523
1481271458467652,0.0859375,0.990723,0.00146484
1481271458490636,0.164551,0.88623,-0.0258789
1481271458514637,0.0244141,0.991211,0.0131836
1481271458528176,0.0615234,0.91748,-0.0654297
1481271458552310,0.0610352,0.994141,-0.0610352
1481271458566315,0.108398,1.0752,-0.0771484
1481271458590292,0.0234375,1.01367,-0.0834961
1481271458617425,0.0888672,0.987305,-0.130859
1481271458626325,0.0830078,0.97168,-0.149414
1481271458656826,0.0673828,1.08838,-0.153809
1481271458669908,0.0834961,1.01709,-0.155273
1481271458694833,0.0708008,1.01221,-0.15625
1481271458708828,0.0449219,0.967773,-0.15918
1481271458730414,0.0322266,0.976563,-0.147949
1481271458745921,0.0185547,0.977051,-0.132813
1481271458768991,0.0380859,0.990723,-0.139648
1481271458791928,0.0351563,0.983398,-0.129395
1481271458805926,0.0737305,1.01318,-0.132324
1481271458829442,0.0615234,1.00928,-0.142578
1481271458852016,0.0341797,0.993652,-0.142578
1481271458866954,0.0366211,1.00195,-0.127441
1481271458896960,0.0395508,0.98291,-0.127441
1481271458910023,0.0600586,1.00781,-0.139648
1481271458934540,0.0678711,0.973145,-0.149414
1481271458948992,0.0527344,0.990723,-0.125977
1481271458972052,0.0214844,0.976563,-0.133301
1481271458985990,0.0390625,1.01074,-0.123047
1481271459009041,0.0522461,1.00342,-0.123047
1481271459038069,0.0307617,1.01172,-0.121582
1481271459045910,0.0302734,0.978027,-0.135254
1481271459068991,0.0307617,1.02148,-0.115234
1481271459089921,0.0786133,0.998047,-0.13623
1481271459105913,0.0585938,1.00146,-0.123535
1481271459129436,0.0380859,0.997559,-0.111816
1481271459149945,0.0483398,0.990234,-0.107422
1481271459173943,0.0610352,1.03857,-0.0678711
1481271459188951,0.0449219,0.990723,-0.0703125
1481271459211981,0.0546875,0.973145,-0.0405273
1481271459226472,0.0424805,0.994629,-0.0366211
1481271459250987,0.0214844,1.02881,-0.0078125
1481271459278039,0.0268555,0.994141,-0.000488281
1481271459285978,0.0126953,0.991699,0.0229492
1481271459317009,0.0375977,1.01172,0.0268555
1481271459330551,0.0512695,1.01367,0.0410156
1481271459345994,0.0439453,0.98291,0.0585938
1481271459368999,0.019043,1.02051,0.110352
1481271459389996,0.0195313,1.0249,0.11377
1481271459405997,0.0234375,1.01221,0.133789
1481271459429081,0.0244141,1.00391,0.143555
1481271459451031,0.0253906,0.98291,0.236328
1481271459466029,0.0566406,0.974121,0.214844
1481271459488095,0.0483398,0.991211,0.223145
1481271459528044,0.0341797,0.967773,0.297363
1481271459533078,0.019043,0.949707,0.371582
1481271459557056,0.0249023,0.958984,0.388184
1481271459572127,0.0234375,0.955566,0.381348
1481271459586060,0.0673828,0.895508,0.375488
1481271459608159,0.0268555,0.935547,0.44873
1481271459632196,0.00146484,0.885254,0.499512
1481271459646040,0.00195313,0.819336,0.508789
1481271459668108,0.0249023,0.79834,0.539551
1481271459691041,0.0415039,0.755859,0.606934
1481271459706042,0.0336914,0.789063,0.657227
1481271459728551,0.0332031,0.782227,0.68457
1481271459751143,0.105469,0.728516,0.662109
1481271459773060,0.046875,0.708984,0.759766
1481271459789063,0.0263672,0.635742,0.772461
1481271459812126,0.0297852,0.647461,0.806152
1481271459833141,0.0493164,0.568359,0.790527
1481271459848789,0.0625,0.599609,0.841797
1481271459871786,0.0644531,0.496094,0.854492
1481271459892869,0.00585938,0.45752,0.897461
1481271459914867,0.0151367,0.447754,0.93457
1481271459932309,0.0634766,0.433594,0.929688
1481271459960025,0.0942383,0.40918,0.942871
1481271459969017,0.0717773,0.333008,0.941895
1481271459991951,-0.00439453,0.312012,0.998535
1481271460013018,0.0371094,0.256836,0.967285
1481271460029033,0.0522461,0.186523,0.976074
1481271460052170,0.0498047,0.198242,1.03467
1481271460073169,0.0688477,0.105957,1.00293
1481271460088197,0.0566406,0.0625,1.02393
1481271460112175,0.0610352,0.0756836,0.974609
1481271460133209,0.0419922,0,0.931641
1481271460148531,0.00195313,-0.00830078,0.981934
1481271460171534,0.0419922,-0.0268555,0.996582
1481271460192537,0.0830078,-0.104492,1.02344
1481271460208534,0.0678711,-0.142578,1.01123
1481271460232067,0.0649414,-0.144043,0.978516
1481271460252750,0.0620117,-0.167969,1.00146
1481271460268754,0.0766602,-0.150879,0.994629
1481271460291753,0.0239258,-0.150879,1.01514
1481271460312752,0.043457,-0.136719,1.02344
1481271460328768,0.0571289,-0.121582,1.02051
1481271460350993,0.0556641,-0.120117,1.07715
1481271460373029,0.0478516,-0.0986328,1.04688
1481271460388070,0.034668,-0.0961914,1.00488
1481271460411002,0.0292969,-0.0776367,1.02441
1481271460433078,0.0483398,-0.0839844,1.02881
1481271460448520,0.0585938,-0.0878906,1.0166
1481271460471587,0.0576172,-0.0869141,1.02734
1481271460494588,0.0463867,-0.0834961,1.03027
1481271460516532,0.0458984,-0.0869141,1.01611
1481271460531107,0.0151367,-0.0717773,0.995605
1481271460554316,0.0444336,-0.0698242,0.999512
1481271460568381,0.0415039,-0.0751953,1.02002
1481271460591317,0.0512695,-0.0776367,1.04053
1481271460621310,0.0449219,-0.0717773,1.04688
1481271460628888,0.0288086,-0.0605469,1.0127
1481271460650901,0.0224609,-0.0600586,1.00293
1481271460673834,0.0449219,-0.0571289,1.00488
1481271460688901,0.0600586,-0.0595703,1.02979
1481271460710852,0.0546875,-0.0595703,1.01758
1481271460734423,0.0527344,-0.0625,1.03027
1481271460748493,0.0390625,-0.0488281,1.00781
1481271460771559,0.0214844,-0.0424805,1.00879
1481271460794530,0.0390625,-0.0488281,1.0127
1481271460808497,0.0493164,-0.0498047,1.03223
1481271460831652,0.0415039,-0.0527344,1.02441
1481271460854100,0.0483398,-0.0493164,1.03125
1481271460876100,0.0351563,-0.0488281,1.00977
1481271460891099,0.0444336,-0.0454102,1.01904
1481271460914102,0.0522461,-0.0415039,1.00488
1481271460929150,0.0380859,-0.0449219,1.00439
1481271460951716,0.0302734,-0.0395508,1.02734
1481271460981655,0.0527344,-0.0458984,1.04053
1481271460994783,0.0512695,-0.0444336,1.00342
1481271461010725,0.0415039,-0.0478516,1.02539
1481271461034172,0.0439453,-0.0361328,1.01221
1481271461055187,0.0507813,-0.0444336,1.03564
1481271461072205,0.0415039,-0.0483398,1.01807
1481271461093911,0.0512695,-0.050293,1.02783
1481271461116781,0.0478516,-0.0405273,0.998047
1481271461131352,0.0493164,-0.0366211,1.0166
1481271461154367,0.0561523,-0.0322266,1.01465
1481271461175364,0.0439453,-0.0332031,1.03369
1481271461191364,0.0620117,-0.0268555,1.01758
1481271461214365,0.0483398,-0.0307617,1.01221
1481271461235382,0.0483398,-0.0439453,1.03271
1481271461251454,0.027832,-0.0366211,1.0166
1481271461281459,0.046875,-0.0488281,1.04443
1481271461295472,0.03125,-0.0566406,1.06689
1481271461311396,0.0195313,-0.0893555,1.06494
1481271461333407,-0.0180664,-0.0947266,1.10889
1481271461355029,-0.0478516,-0.121582,0.981445
1481271461371024,-0.0463867,-0.0400391,1.15039
1481271461402092,-0.027832,-0.0292969,0.95752
1481271461417092,-0.0263672,-0.0117188,0.966309
1481271461431038,0.00927734,-0.00830078,0.982422
1481271461454665,-0.0771484,0.0336914,1.0542
1481271461477669,-0.0078125,0.0297852,1.02197
1481271461490635,0.0478516,-0.00537109,1.03516
1481271461513609,0.0341797,0.0483398,1.04834
1481271461537303,0.0805664,0.0415039,1.0293
1481271461550799,-0.0302734,-0.0239258,1.07617
1481271461581770,0.0961914,0.0429688,1.01758
1481271461596769,0.0444336,0.027832,1.0498
1481271461610769,-0.065918,0.0400391,0.988281
1481271461633791,0.00390625,0.0258789,0.986816
1481271461656933,0.0400391,0.0288086,1.07031
1481271461670935,0.103516,0.0517578,1.05811
1481271461693937,-0.0249023,0.00634766,1.00977
1481271461716942,0.0141602,0.0302734,0.963867
1481271461739450,0.155762,-0.0932617,0.998535
1481271461754029,0.203613,-0.109863,1.03564
1481271461776962,0.00830078,-0.0283203,1.0249
1481271461804972,-0.00732422,0.019043,1.03613
1481271461814031,0.16748,-0.0830078,1.08545
1481271461844006,0.148438,-0.143555,0.947754
1481271461858077,0.0317383,-0.0913086,0.937988
1481271461873072,0.00732422,-0.100098,0.959961
1481271461897043,0.0839844,-0.0761719,0.912598
1481271461918113,0.145996,-0.0668945,1.12109
1481271461934093,0.0571289,-0.000976563,1.06738
1481271461956041,0.0585938,-0.0561523,1.01416
1481271461978171,0.0737305,-0.043457,1.00586
1481271461993143,0.0185547,-0.0195313,1.0249
1481271462017106,0.0205078,0.0112305,1.04297
1481271462038131,0.108887,-0.0874023,0.92041
1481271462053203,0.136719,-0.141113,0.913086
1481271462076169,0.0571289,-0.0244141,0.938477
1481271462098137,0.0351563,-0.0166016,1.05176
1481271462113124,0.0742188,-0.0541992,1.02246
1481271462136589,0.0537109,-0.0214844,1.03076
1481271462158128,0.0151367,0.0244141,1.00977
1481271462174095,-0.00634766,0.00439453,1.01074
1481271462196101,0.0117188,-0.0859375,1.00049
1481271462218161,0.0268555,-0.137207,1.021
1481271462233608,0.0395508,-0.0620117,0.995605
1481271462257118,0.0195313,-0.0249023,1.0376
1481271462285153,0.0424805,-0.0522461,1.06152
1481271462293132,0.0341797,-0.034668,1.04199
1481271462316121,0.0483398,-0.074707,1.06738
1481271462338167,0.0649414,-0.134277,1.02539
1481271462353141,0.065918,-0.0859375,1.06885
1481271462376144,0.0615234,-0.0517578,1.07129
1481271462399146,0.0571289,-0.0600586,1.03711
1481271462413145,0.0507813,-0.0585938,0.985352
1481271462436158,0.043457,-0.0463867,1
1481271462459168,0.0444336,-0.0839844,1.02002
1481271462473169,0.027832,-0.0776367,1.01123
1481271462496170,0.012207,-0.065918,0.997559
1481271462519176,0.012207,-0.0439453,0.999023
1481271462533680,0.0258789,-0.0786133,1.03271
1481271462556184,0.0253906,-0.0805664,0.999023
1481271462579185,0.0214844,-0.0795898,1.021
1481271462593221,0.0405273,-0.078125,1.01904
1481271462616188,0.034668,-0.0566406,1.06494
1481271462639204,0.0415039,-0.0991211,1.03027
1481271462653746,0.0336914,-0.103516,1.04248
1481271462675762,0.0244141,-0.0976563,1.01758
1481271462722770,0.027832,-0.0732422,0.998535
1481271462722770,0.0405273,-0.0917969,1.01807
1481271462742864,0.0371094,-0.0615234,1.0166
1481271462759819,0.0205078,-0.097168,1.02002
1481271462773915,0.114258,-0.0693359,0.945801
1481271462803792,0.138672,-0.121094,1.10303
1481271462827315,-0.125488,-0.0678711,0.836426
1481271462848854,-0.0737305,-0.112305,1.28174
1481271462863888,0.0966797,-0.126465,1.29443
1481271462886849,0.161133,-0.0458984,1.30078
1481271462908901,0.109863,-0.0361328,1.32471
1481271462922855,-0.0722656,-0.109375,1.40039
1481271462946913,-0.302246,-0.171875,1.17383
1481271462968907,-0.150879,-0.115234,0.696289
1481271462982912,0.418945,0.0429688,0.871582
1481271463006913,-0.043457,-0.0673828,1.48535
1481271463029584,-0.266602,-0.146973,0.62793
1481271463050246,0.495117,0.0507813,1.2124
1481271463067236,-0.483398,-0.178223,0.887695
1481271463089169,0.539551,0.0849609,1.26904
1481271463110172,-0.416016,-0.220703,0.555176
1481271463126885,0.226563,-0.0161133,1.75049
1481271463148990,0.426758,-0.0200195,0.376953
1481271463170003,-0.591797,-0.187012,0.897949
1481271463186929,0.129395,-0.104492,1.93115
1481271463208923,0.518555,0.0327148,1.25439
1481271463230442,0.134277,0.0649414,0.30127
1481271463246448,-0.279785,-0.0117188,-0.0322266
1481271463269449,-0.472168,-0.161621,0.110352
1481271463290455,-0.571777,-0.150879,0.246582
1481271463306452,-0.565918,-0.104492,0.117188
1481271463329468,-0.421387,0.0869141,-0.0209961
1481271463350003,0.205566,0.203125,0.245605
1481271463359069,0.888672,0.157227,1.66113
1481271463382083,-0.269043,-0.294434,1.16016
1481271463396010,0.107422,0.23291,0.438965
1481271463418105,0.234863,-0.0830078,1.84961
1481271463442089,-0.03125,0.0537109,1.12109
1481271463464296,0.00244141,0.0229492,1.06787
1481271463478356,0.0307617,-0.0390625,1.01611
1481271463501336,0.0732422,0.0576172,0.921387
1481271463524315,-0.0317383,0.106445,1.0166
1481271463547357,-0.050293,0.0732422,1.05029
1481271463593360,0.0107422,-0.019043,1.12402
1481271463599398,-0.00878906,-0.0410156,1.02148
1481271463601360,-0.0551758,0.00537109,0.925293
1481271463621398,-0.0737305,0.0400391,0.978516
1481271463651707,-0.0297852,0.100586,1.07764
1481271463658754,0.0688477,0.000488281,1.13184
1481271463690746,0.11377,-0.0478516,1.03613
1481271463702791,0.0913086,-0.0258789,0.95459
1481271463735809,-0.11084,0.0561523,0.908203
1481271463742311,-0.114746,0.0961914,0.991211
1481271463762988,0.00195313,0.015625,1.16309
1481271463793991,0.0898438,-0.0541992,1.12402
1481271463802019,0.0600586,-0.00341797,1.0249
1481271463822992,-0.0800781,-0.0253906,0.863281
1481271463846578,-0.229004,0.000976563,0.87793
1481271463869650,-0.187012,-0.0166016,1.02637
1481271463874583,0.0185547,-0.0922852,1.14014
1481271463905582,0.0761719,-0.0766602,1.0918
1481271463912659,-0.0180664,-0.0595703,0.952637
1481271463934676,-0.15625,-0.034668,0.914063
1481271463974112,-0.0966797,-0.0473633,0.98584
1481271463976084,-0.0527344,-0.0463867,1.04346
1481271463994112,0.0131836,-0.03125,1.04053
1481271464018221,0.00244141,-0.000488281,0.983398
1481271464042628,-0.0263672,-0.00244141,0.964844
1481271464079752,-0.0766602,0.00341797,1.04443
1481271464081752,-0.015625,0.00488281,1.06543
1481271464100833,0.0864258,-0.0371094,1.15088
1481271464122754,0.0932617,-0.0541992,1.0498
1481271464148894,-0.0292969,-0.0151367,1.0498
1481271464152980,-0.127441,-0.0273438,1.01904
1481271464183996,-0.0341797,-0.0620117,0.958008
1481271464205898,0.0473633,-0.0571289,1.02881
1481271464211898,0.0483398,-0.0742188,1.00342
1481271464244453,0.0776367,-0.0996094,1.08154
1481271464258419,0.0175781,-0.0478516,1.04248
1481271464275455,-0.00537109,-0.034668,0.980469
1481271464294446,0.0146484,-0.0458984,0.987305
1481271464317429,0.0205078,-0.0405273,0.996094
1481271464348116,0.0341797,-0.0625,1.0459
1481271464357104,0.0302734,-0.0668945,0.988281
1481271464378102,0.00195313,-0.0507813,1.02344
1481271464392042,0.0141602,-0.0664063,1.05615
1481271464417105,0.0375977,-0.0634766,1.03906
1481271464445569,0.0512695,-0.0566406,1.01807
1481271464460609,0.0273438,-0.0576172,1.03613
1481271464484637,0.034668,-0.0644531,1.05762
1481271464497638,0.0351563,-0.0517578,0.999023
1481271464530218,0.0219727,-0.0375977,0.960938
1481271464534679,0.0185547,-0.0458984,1
1481271464557769,0.0307617,-0.0644531,1.01123
1481271464572688,0.0395508,-0.0644531,1.00195
1481271464594768,0.0195313,-0.0644531,1.03271
1481271464634316,0.158691,-0.169434,1.12988
1481271464636787,0.00439453,-0.0649414,1.0127
1481271464657430,-0.0078125,-0.059082,0.936523
1481271464700466,0.00732422,-0.0498047,1.01709
1481271464709538,0.0688477,-0.074707,1.07617
1481271464723443,0.0703125,-0.0375977,1.04053
1481271464739520,0.0117188,-0.0527344,0.991211
1481271464761593,-0.0395508,-0.027832,1.03711
1481271464806665,0.0419922,-0.0234375,1.04297
1481271464809593,0.043457,-0.0693359,1.03027
1481271464847180,0.0385742,-0.0527344,1.00146
1481271464868115,-0.0283203,-0.0258789,1.01904
1481271464870150,-0.0537109,-0.0551758,1.03125
1481271464875116,0.0585938,0.027832,1.01855
1481271464912136,-0.0664063,-0.0292969,1.0498
1481271464942700,-0.0244141,-0.0151367,1.03906
1481271464943637,-0.0483398,0.0175781,1.1123
1481271464981023,-0.124512,0.012207,0.993652
1481271464987024,0.0561523,0.0258789,0.910156
1481271465000105,0.100586,0.03125,1.00879
1481271465014028,-0.106445,0.0268555,1.01123
1481271465039118,-0.0288086,0.0429688,1.00488
1481271465076763,-0.140625,0.0410156,1.00977
1481271465078721,-0.13623,-0.0522461,1.02197
1481271465105658,-0.176758,-0.0849609,0.955078
1481271465120734,0.00732422,-0.00537109,0.970215
1481271465143212,-0.0625,-0.0224609,0.990234
1481271465157105,-0.153809,-0.106934,1.01367
1481271465180094,-0.0205078,0.11377,0.883789
1481271465194096,0.0161133,-0.0703125,1.09814
1481271465217097,-0.0214844,-0.0209961,1.02539
1481271465248119,-0.0351563,-0.112793,0.983398
1481271465254121,0.0112305,-0.0693359,1.01807
1481271465278177,0.027832,-0.0546875,0.998047
1481271465300122,-0.0493164,-0.0791016,1.06055
1481271465316122,-0.259277,-0.237793,0.911621
1481271465338632,0.0644531,0.00341797,1.10303
1481271465360146,0.0698242,0.0166016,1.00586
1481271465383207,-0.0541992,-0.0463867,0.97168
1481271465397145,-0.0649414,-0.0683594,1.04346
1481271465421200,-0.059082,-0.0444336,1.10791
1481271465434660,-0.0258789,-0.0336914,1.0249
1481271465460167,0.0410156,0.0205078,1.04932
1481271465487172,0.00146484,0.00537109,1.01123
1481271465497233,-0.101563,-0.0488281,0.981445
1481271465527172,-0.0703125,-0.00878906,0.981934
1481271465540194,-0.102051,-0.0761719,1.06396
1481271465556207,-0.0898438,-0.0825195,0.999023
1481271465577206,0.0195313,0.00732422,1.10107
1481271465600270,0.00292969,0.00146484,0.98877
1481271465614208,-0.074707,-0.0537109,0.975098
1481271465637313,-0.0297852,-0.0566406,1.03906
1481271465660391,-0.0551758,-0.0551758,1.01367
1481271465674339,-0.0844727,-0.0625,1.02051
1481271465697324,-0.0263672,-0.000976563,1.03809
1481271465720328,-0.0356445,-0.0200195,1.04297
1481271465734844,-0.0527344,0.0375977,1.021
1481271465757410,-0.105469,-0.0239258,1.04736
1481271465788349,-0.0825195,-0.00683594,1.03418
1481271465794419,-0.0175781,0.0625,1.05615
1481271465817358,-0.0473633,0.0371094,1.06299
1481271465840365,-0.0571289,-0.00292969,1.01123
1481271465854378,-0.0986328,-0.0146484,1.01172
1481271465877381,-0.0351563,0.0415039,1.00879
1481271465900384,-0.012207,0.0878906,1.03125
1481271465914490,-0.0366211,0.0292969,0.986328
1481271465937434,-0.0512695,0.0102539,1.04443
1481271465959997,-0.0166016,0.0185547,1.02637
1481271465975062,-0.0424805,0.00390625,1.00049
1481271465997000,-0.050293,0.00341797,1.01611
1481271466020004,-0.03125,0.0351563,0.972168
1481271466035078,-0.0537109,-0.00732422,0.980957
1481271466056602,-0.0703125,0.00976563,0.995605
1481271466080528,-0.0610352,-0.000976563,1.04834
1481271466094539,-0.0478516,-0.0136719,1.02637
1481271466116642,-0.0527344,-0.0297852,1.04785
1481271466148288,-0.0449219,-0.0566406,1.08398
1481271466154213,-0.0771484,-0.0766602,1.04199
1481271466177289,-0.0517578,-0.0415039,1.02148
1481271466199530,-0.0332031,-0.00878906,1.00879
1481271466214463,-0.0336914,-0.00878906,1.0127
1481271466237540,-0.0527344,-0.0361328,1.02979
1481271466259510,-0.0566406,-0.0327148,1.01367
1481271466274483,-0.027832,-0.00341797,1.00439
1481271466297552,-0.0327148,-0.0249023,1.0459
1481271466328556,-0.0366211,-0.0209961,1.06934
1481271466334570,-0.0200195,-0.0292969,1.04297
1481271466357201,-0.0400391,-0.0253906,0.994629
1481271466379122,-0.034668,-0.00732422,1.00439
1481271466394123,-0.0600586,-0.0214844,1.0332
1481271466425125,-0.0356445,-0.019043,1.02637
1481271466448315,0,0.0107422,1.0459
1481271466454282,-0.00830078,0.0517578,0.990234
1481271466477409,-0.0415039,-0.000488281,0.992188
1481271466499415,-0.122559,-0.0366211,1.01025
1481271466514315,-0.0698242,-0.0175781,1.04004
1481271466537334,0.0112305,0.0751953,0.987793
1481271466559778,-0.0512695,-0.00390625,0.969238
1481271466574760,-0.100098,-0.0410156,0.999512
1481271466596767,-0.0878906,-0.0195313,1.07764
1481271466619772,-0.0332031,0.0205078,1.05176
1481271466634780,-0.0571289,0.0224609,0.95166
1481271466656789,-0.0234375,-0.0336914,1.09082
1481271466679790,-0.0732422,-0.00390625,1.05908
1481271466694795,-0.100586,0.00292969,1.02295
1481271466716884,-0.0839844,-0.0126953,1.00391
1481271466739805,-0.0703125,-0.0786133,1.11572
1481271466754397,-0.0820313,0.0175781,1.02734
1481271466777398,-0.0283203,-0.0322266,1.00195
1481271466799478,-0.104492,-0.050293,0.910645
1481271466814402,-0.269043,-0.244141,1.02539
1481271466837481,-0.121582,-0.0874023,0.985352
1481271466859560,0.227539,0.260254,0.998535
1481271466882520,0.0844727,0.234375,1.125
1481271466897523,-0.12793,0.125977,0.968262
1481271466919463,-0.217773,-0.0136719,1.13232
1481271466942970,-0.162109,0.081543,1.05322
1481271466957069,0.0830078,0.210938,1.04199
1481271466979055,0.034668,0.152344,1.14404
1481271467002984,-0.0615234,0.155273,0.931152
1481271467017057,-0.255371,0.225098,1.02344
1481271467040080,-0.161133,0.160156,1.00391
1481271467063178,-0.0244141,0.17334,0.992676
1481271467077155,-0.141113,0.123535,0.995605
1481271467099158,-0.241211,0.256348,0.928711
1481271467122082,-0.140137,0.264648,0.987305
1481271467137089,0.0249023,0.270996,1.02393
1481271467160116,-0.0205078,0.230469,1.01416
1481271467181987,-0.163574,0.181152,0.921875
1481271467197054,-0.0683594,0.168457,0.858398
1481271467220051,-0.116699,0.172852,0.966309
1481271467244061,-0.00195313,0.149414,0.994629
1481271467256879,-0.0126953,0.139648,1.04053
1481271467280884,0.000976563,0.10498,1.06445
1481271467301976,0.0214844,0.0493164,0.959961
1481271467316918,-0.0854492,0.0498047,0.953125
1481271467339911,-0.0317383,0.0361328,1.08203
1481271467361921,0.177734,0.0253906,1.1626
1481271467377016,0.138184,0.0541992,1.06445
1481271467400051,0.0332031,0.0268555,0.944336
1481271467421922,-0.0546875,0.0249023,0.899902
1481271467437545,-0.0219727,0.00976563,1.05078
1481271467459660,0.00341797,0.00830078,1.04443
1481271467481715,0.0356445,-0.0078125,1.13867
1481271467496717,-0.0517578,0.0239258,1.07959
1481271467519642,-0.0356445,-0.0322266,1.03857
1481271467542166,-0.0229492,-0.0625,1.01416
1481271467575179,-0.00976563,-0.00878906,1.03662
1481271467579174,-0.0229492,0.00195313,0.998047
1481271467603208,-0.0371094,0.0209961,1.02686
1481271467617203,0.0239258,0.0219727,1.02393
1481271467641711,0.0268555,0.0229492,0.977051
1481271467680755,-0.00341797,0.0117188,0.984375
1481271467684751,-0.0205078,0.0283203,0.957031
1481271467707752,0.00341797,0.0556641,1.03711
1481271467721756,0.0405273,0.0634766,1.07373
1481271467744766,0.0805664,0.0566406,1.03662
1481271467759869,0.03125,0.0400391,1.02002
1481271467781964,-0.0288086,0.0483398,1.00977
1481271467796870,0.0151367,0.0634766,1.01953
1481271467819880,0.0400391,0.0732422,1.04346
1481271467852391,0.0356445,0.0488281,0.98291
1481271467857394,0.0297852,0.0507813,1.00977
1481271467881462,0.0327148,0.074707,1.03271
1481271467902397,0.0712891,0.0551758,1.05469
1481271467920430,0.0576172,0.0678711,1.04004
1481271467948229,0.00195313,0.0776367,1.14844
1481271467962242,0.0273438,0.210938,1.10986
1481271467986230,0.0292969,0.0444336,1.06836
1481271467999193,0.0410156,0.03125,0.934082
1481271468025165,-0.0981445,0.00683594,1.20166
1481271468038708,-0.0371094,-0.0317383,0.943848
1481271468062312,-0.0258789,-0.000976563,1.0083
1481271468090315,0.0463867,0.172852,1.02979
1481271468098287,0.0356445,0.0742188,1.0415
1481271468137326,0.0244141,0.166504,0.979492
1481271468142330,-0.0244141,0.0175781,0.955566
1481271468167841,-0.0537109,0.0444336,0.913086
1481271468198840,-0.0273438,0.0317383,0.949707
1481271468203841,-0.0488281,0.0356445,0.93457
1481271468235855,-0.0576172,0.0356445,0.964844
1481271468239854,0.00195313,0.0634766,0.994141
1481271468271866,0.0151367,0.104004,1.02441
1481271468310871,0.0126953,0.120605,1.0415
1481271468315937,0.0629883,0.126465,1.04004
1481271468339382,0.0444336,0.10498,1.03271
1481271468341378,-0.00732422,0.105469,1.0459
1481271468370890,-0.0615234,0.065918,1.021
1481271468405956,-0.00878906,0.0874023,1.02051
1481271468415941,0.0268555,0.0507813,1.00781
1481271468452986,-0.0161133,0.0566406,0.986816
1481271468458983,-0.0205078,0.0292969,0.98291
1481271468460984,0.0078125,0.065918,0.995605
1481271468480020,-0.012207,0.0688477,1.02051
1481271468511986,-0.0336914,0.0864258,1.03613
1481271468518989,-0.0214844,0.09375,1.0293
1481271468543589,-0.0200195,0.101074,1.08203
1481271468562082,-0.0385742,0.0976563,1.03076
1481271468580082,-0.0141602,0.0585938,1.01953
1481271468616105,-0.0307617,0.0678711,1.03662
1481271468622083,-0.0141602,0.0737305,1.02539
1481271468647165,-0.0366211,0.0761719,1.03125
1481271468660124,-0.0332031,0.0942383,1.03564
1481271468685104,-0.0161133,0.0864258,1.03613
1481271468722157,-0.0463867,0.0961914,1.02637
1481271468724106,-0.0463867,0.0678711,0.990723
1481271468750194,-0.0454102,0.0898438,1.01172
1481271468764136,-0.0371094,0.0683594,1.01514
1481271468791130,-0.000976563,0.0864258,1.01123
1481271468802135,-0.0263672,0.0849609,1.0249
1481271468827200,-0.0297852,0.0922852,1.02539
1481271468857158,-0.0131836,0.0825195,1.00098
1481271468862154,-0.00927734,0.128418,1.05273
1481271468894158,-0.0117188,0.109375,1.04443
1481271468901163,0.012207,0.100586,1.0166
1481271468925159,-0.0151367,0.0717773,0.998535
1481271468963752,-0.00439453,0.0820313,0.999512
1481271468968795,-0.0151367,0.0800781,1.00146
1481271468999755,-0.015625,0.0742188,1.01025
1481271469005789,-0.0273438,0.0756836,0.998535
1481271469028761,-0.027832,0.0825195,1.00537
1481271469042317,-0.0078125,0.0922852,1.02539
1481271469067944,-0.00830078,0.0791016,1.01611
1481271469081880,-0.012207,0.0668945,1.02197
1481271469104881,-0.034668,0.0820313,1.01758
1481271469134478,-0.015625,0.0830078,1.02832
1481271469141510,-0.019043,0.0830078,1.01709
1481271469173017,-0.043457,0.0805664,1.01563
1481271469202092,-0.0141602,0.0883789,1.02979
1481271469204018,0,0.0688477,1.01123
1481271469241532,-0.019043,0.0810547,1.01807
1481271469246555,-0.0400391,0.0791016,1.00293
1481271469276553,-0.00830078,0.0878906,1.021
1481271469283550,-0.00146484,0.0805664,1.02051
1481271469305616,-0.0249023,0.0810547,1
1481271469321587,-0.0209961,0.0561523,0.999023
1481271469345065,-0.0175781,0.0878906,1.021
1481271469381675,-0.0166016,0.0869141,1.0127
1481271469383636,-0.0185547,0.0893555,1.02832
1481271469413620,-0.0126953,0.0688477,1.00293
1481271469424585,-0.0185547,0.0859375,1.02051
1481271469450126,-0.0244141,0.0874023,1.00879
1481271469478125,-0.0151367,0.0737305,1.03857
1481271469485163,-0.0288086,0.0761719,1.01807
1481271469519125,-0.0161133,0.0756836,1.01074
1481271469523189,-0.03125,0.0561523,1.01465
1481271469554164,-0.0263672,0.0756836,1.02441
