timestamp,emg1,emg2,emg3,emg4,emg5,emg6,emg7,emg8
1481271437881712,3,-3,-4,-6,-7,-7,1,-2
1481271437881712,-5,-3,3,-1,-1,0,-5,-5
1481271437883712,-2,-2,-2,-6,-2,-1,2,-2
1481271437883712,6,5,0,1,-4,3,4,3
1481271437884746,2,-3,1,-6,-4,-2,-2,-6
1481271437884746,1,3,3,4,6,-2,-2,0
1481271437887712,5,2,-1,8,8,9,3,11
1481271437887712,2,-1,-2,2,2,-4,2,-2
1481271437893713,-12,-4,1,0,2,2,-10,-3
1481271437893713,2,3,-3,3,2,0,5,1
1481271437910713,-2,0,2,-6,-3,-3,-2,-4
1481271437910713,-5,-2,0,-8,-5,-8,-6,-7
1481271437917733,-3,-3,-2,-5,-10,-4,-5,-7
1481271437917733,1,1,-4,-2,7,-3,1,6
1481271437932740,-1,0,2,-5,-6,-6,-4,-6
1481271437932740,2,-3,-1,3,-1,1,-1,-1
1481271437932740,7,4,-2,2,2,2,10,7
1481271437932740,-2,-3,3,1,3,7,6,8
1481271437948741,-4,-1,4,0,-6,-2,-3,-7
1481271437948741,7,-3,-1,0,-3,-1,0,0
1481271437953740,-3,-3,2,1,-1,1,0,-1
1481271437953740,-5,-7,2,-2,-3,-5,-3,-6
1481271437979743,-4,-3,-7,-3,0,-6,-2,3
1481271437979743,-2,3,2,0,1,3,2,2
1481271437980744,-5,-4,-3,0,4,4,-1,2
1481271437980744,-3,3,-1,-2,-5,2,2,-5
1481271437992876,-1,-4,-3,-1,-1,-2,0,5
1481271437992876,4,0,5,2,4,-1,5,0
1481271437992876,4,3,4,2,4,-3,-1,-7
1481271437992876,-1,-5,-3,-4,-4,1,2,-2
1481271438015319,1,-1,-4,0,-4,-1,-3,-1
1481271438015319,-7,-1,-1,0,1,1,-5,-3
1481271438015756,-3,-1,2,-2,-5,-3,0,-2
1481271438015756,3,-2,1,0,-4,-9,0,3
1481271438037768,-1,0,1,1,2,-6,-5,-11
1481271438037768,-4,-3,-5,-9,-6,-7,-6,-3
1481271438038768,3,0,-1,0,1,6,1,1
1481271438038768,-2,0,0,-1,-2,1,-5,-3
1481271438052852,-6,1,-1,3,0,5,2,-1
1481271438052852,3,4,-3,-3,0,4,6,5
1481271438053770,2,-2,0,-2,-5,2,1,3
1481271438053770,-7,-4,-1,2,-1,4,2,0
1481271438066769,2,3,1,6,7,0,-1,2
1481271438066769,-2,-4,-1,-3,-5,-4,-4,-1
1481271438082918,-5,1,0,-5,-4,-7,-6,-9
1481271438082918,1,-3,-3,-4,-9,-3,-6,-5
1481271438088881,3,-6,-4,-5,-2,1,-4,3
1481271438088881,-3,-3,-2,-5,-7,-8,-12,-10
1481271438097855,0,-4,-5,3,1,-3,-3,-6
1481271438097855,3,0,-6,1,5,3,3,6
1481271438120786,3,-3,0,-5,-1,-5,-2,1
1481271438120786,-6,3,-3,-2,-2,0,-8,-2
1481271438121309,2,-1,1,4,6,9,9,13
1481271438121309,-2,6,4,-2,-4,-2,-6,3
1481271438126786,-7,-1,0,-7,-10,-6,-7,-7
1481271438126786,-6,-2,-4,-6,-6,-4,-4,-2
1481271438133814,-4,-2,-4,-6,-3,-3,4,0
1481271438133814,-5,-4,2,-7,-8,-7,-13,-5
1481271438159796,-1,-6,-1,-2,0,3,-1,3
1481271438159796,8,3,3,2,-2,3,10,6
1481271438159796,-1,0,1,-1,-2,1,-4,0
1481271438159796,-4,-7,2,0,4,0,1,-5
1481271438171867,7,5,1,7,5,3,12,2
1481271438171867,0,-4,2,3,4,1,4,2
1481271438172942,-7,1,4,-5,-6,-6,-8,-12
1481271438172942,0,-1,0,4,8,7,5,3
1481271438187942,-2,-1,-3,1,-4,1,7,5
1481271438187942,-8,-5,-2,-3,-2,-4,-4,-5
1481271438193798,-1,-1,-1,0,-1,-1,-7,-4
1481271438193798,5,4,-4,-3,-2,2,6,1
1481271438208797,-2,0,5,-6,-8,2,-3,-3
1481271438208797,-6,-10,-3,-1,0,-5,-3,-4
1481271438225311,7,5,-5,-4,3,5,5,7
1481271438225311,2,1,1,3,-5,-1,1,1
1481271438232640,-4,1,1,2,1,-3,-5,-6
1481271438232640,6,2,1,3,4,6,7,11
1481271438232640,3,-3,1,6,1,-4,4,6
1481271438232640,-4,-3,1,0,2,0,-5,2
1481271438254639,-3,3,-2,4,3,-1,3,-4
1481271438254639,-2,-2,2,-9,-4,-2,-3,0
1481271438255640,-6,-5,0,-7,-4,-4,-3,-11
1481271438255640,-5,2,1,-4,-1,-6,-4,-7
1481271438268639,6,-3,0,-2,-1,-7,-7,5
1481271438268639,-1,4,1,1,5,2,0,6
1481271438277648,-3,3,5,7,10,4,-1,3
1481271438277648,6,3,-1,6,7,5,12,8
1481271438292726,4,7,1,0,2,3,5,3
1481271438292726,-2,-2,3,2,-2,0,-3,-6
1481271438292726,-1,-6,0,-5,-2,3,-1,0
1481271438292726,-1,-3,-3,-10,-10,-11,-9,-5
1481271438306728,-9,-8,-1,-3,2,-3,-6,-5
1481271438306728,-3,-4,2,4,2,4,4,-5
1481271438314661,2,0,-5,0,-1,-3,2,-2
1481271438314661,-4,-5,2,-9,-8,-5,-1,-1
1481271438330661,-3,-1,3,3,0,-1,-1,3
1481271438330661,7,7,-5,1,-3,4,2,6
1481271438337662,-1,-2,-4,0,-4,-4,-2,6
1481271438337662,-2,-5,-4,-7,-4,-5,-9,-7
1481271438360664,-8,-5,0,0,0,2,2,1
1481271438360664,2,3,-7,-4,0,-2,2,-1
1481271438361664,-3,-8,0,-4,-5,-7,-8,-4
1481271438361664,-4,-3,0,0,3,0,-1,1
1481271438366663,2,6,1,-4,-1,4,4,1
1481271438366663,-6,-8,2,-4,-4,-5,-6,-1
1481271438374716,-1,0,1,-2,-4,-1,-3,-6
1481271438374716,2,-3,-3,0,0,4,5,5
1481271438397665,4,-3,1,4,5,0,2,6
1481271438397665,-5,-1,-4,-2,-2,-7,-5,-5
1481271438398663,-3,0,1,2,3,0,3,6
1481271438398663,4,-1,-2,8,2,6,0,1
1481271438412664,-1,0,-2,-3,2,-4,-4,0
1481271438412664,-4,-4,-3,-2,1,0,-3,-2
1481271438413172,2,2,-2,0,2,2,7,5
1481271438413172,-5,-3,2,-2,2,-3,2,-3
1481271438436684,-3,-3,9,-4,-11,-3,-6,-9
1481271438436684,2,1,-2,-2,-9,-4,-7,-6
1481271438436684,3,2,-4,1,-6,-3,-4,6
1481271438436684,-1,-1,-7,2,-1,1,0,-9
1481271438448682,1,4,-12,1,1,-3,-2,0
1481271438448682,3,-3,0,2,5,7,8,9
1481271438464767,-2,-2,7,2,-3,4,3,4
1481271438464767,-3,-5,4,1,-4,-4,-2,-7
1481271438472767,4,-2,-4,-1,-4,3,-2,2
1481271438472767,0,-5,-1,-1,-1,-3,-1,-7
1481271438472767,-8,-8,-2,2,8,-4,0,-9
1481271438472767,-1,1,-6,-6,-3,-6,-5,-2
1481271438486688,2,-5,5,-1,6,-1,-2,5
1481271438486688,1,4,3,6,1,-1,0,-6
1481271438502685,4,5,2,-3,-5,2,2,-7
1481271438502685,5,1,1,-2,4,0,1,7
1481271438509686,0,2,2,0,-7,0,3,2
1481271438509686,-7,0,-1,-6,-4,-3,-1,-6
1481271438517693,-2,5,-1,-12,-7,-1,3,-7
1481271438517693,-1,-1,0,-2,-4,-1,-2,-2
1481271438531787,-2,-2,0,-5,0,-1,-5,-3
1481271438531787,-7,-4,0,-2,5,-1,-5,4
1481271438539787,-5,-5,6,-1,-7,-4,-1,3
1481271438539787,-6,2,-1,-1,2,0,2,-6
1481271438546703,1,1,-6,-4,3,2,-2,-5
1481271438546703,3,2,0,-1,-6,0,-1,1
1481271438554738,1,2,-5,0,3,-2,-2,-3
1481271438554738,-3,-4,1,4,3,0,-8,1
1481271438570705,1,2,-1,2,-1,2,7,3
1481271438570705,1,-3,0,-3,-4,0,-2,0
1481271438577708,1,-2,0,2,11,1,-2,-3
1481271438577708,1,1,2,6,3,3,9,3
1481271438591778,-1,1,0,-3,-8,-6,3,-2
1481271438591778,-9,-4,2,-5,-3,-3,-4,-2
1481271438607778,-5,-4,-1,-5,-4,-5,-5,-4
1481271438607778,1,0,3,-5,-9,-5,-4,-2
1481271438609708,1,-1,-1,-8,-5,-5,-9,-9
1481271438609708,3,0,3,0,5,0,1,0
1481271438614216,2,2,-5,0,-2,4,3,8
1481271438614216,-2,2,-1,-2,-2,4,1,-1
1481271438637809,5,-3,-1,0,5,3,3,-2
1481271438637809,5,5,0,3,4,4,9,5
1481271438638792,3,-5,-6,-4,-2,-4,0,2
1481271438638792,-4,-7,-1,-5,-1,-8,-5,-11
1481271438651727,-3,0,-1,-3,-10,-7,-2,-6
1481271438651727,2,1,-6,-2,-3,-3,-3,3
1481271438659809,-7,-4,0,-7,4,-6,-9,-4
1481271438659809,-1,2,5,0,2,0,-2,-3
1481271438674726,2,2,-5,1,-2,-7,0,5
1481271438674726,4,-1,-2,1,-3,-1,-2,4
1481271438675727,0,-3,3,-1,-5,0,-4,2
1481271438675727,9,1,0,2,1,1,6,3
1481271438689785,-3,-12,-6,1,2,7,2,7
1481271438689785,-5,-4,1,3,-1,-2,-8,-8
1481271438713304,2,1,-3,-2,-8,-1,-6,-2
1481271438713304,2,1,-1,-1,-4,4,1,5
1481271438714738,-4,-1,1,3,-6,-4,-3,-4
1481271438714738,-8,-10,-2,0,4,-2,2,-2
1481271438720304,0,-1,-2,3,-1,2,7,4
1481271438720304,-1,0,0,-3,-9,-7,-4,3
1481271438742750,-4,-6,3,-4,1,0,-4,-11
1481271438742750,2,3,-2,-5,-3,-1,1,4
1481271438743750,2,-2,-2,-5,-1,-1,1,-3
1481271438743750,-4,-1,1,0,2,1,0,-3
1481271438748839,-6,2,-3,1,4,4,3,4
1481271438748839,6,4,2,2,1,3,0,3
1481271438757815,-7,-4,0,8,5,0,-2,-4
1481271438757815,-5,-2,-4,-2,5,-1,-3,-3
1481271438780808,6,3,-1,-4,3,0,-2,-3
1481271438780808,-4,-2,1,-3,-10,-3,-9,-7
1481271438781822,-2,4,-1,2,-3,-2,-9,-5
1481271438781822,0,-10,-4,-5,-6,1,-1,5
1481271438794750,4,-3,1,3,4,4,-1,7
1481271438794750,-4,3,-3,4,3,5,1,6
1481271438795756,10,2,-6,4,0,2,4,7
1481271438795756,1,0,-2,4,-2,0,2,3
1481271438810751,-1,-4,-2,0,-2,-2,-3,4
1481271438810751,-3,1,2,4,0,-2,-1,-7
1481271438817826,-7,-3,2,-9,-8,-5,1,-1
1481271438817826,-5,-8,-2,-1,-4,-2,-4,0
1481271438831654,-7,0,0,0,-10,2,0,-4
1481271438831654,4,-8,-1,-1,3,1,3,-4
1481271438847579,4,5,-1,-1,-3,2,1,1
1481271438847579,3,9,-1,2,-4,0,0,-1
1481271438854668,1,5,0,1,-1,0,-2,5
1481271438854668,2,-1,-3,0,-1,-4,-2,-1
1481271438855577,-6,-5,-6,-5,-1,-3,-4,0
1481271438855577,-2,-2,1,2,-2,2,2,1
1481271438869577,0,-1,-2,0,0,-6,-1,0
1481271438869577,-7,2,1,-7,-1,-2,-8,-6
1481271438884672,0,-1,2,5,5,-2,-3,-3
1481271438884672,2,3,-6,-2,-3,5,6,4
1481271438891578,-3,-3,-1,-5,-4,-2,-7,-5
1481271438891578,-1,-5,2,-3,1,-1,-3,-2
1481271438899583,-2,-5,-4,-4,-4,-2,1,0
1481271438899583,2,-3,-1,-3,-3,1,-2,1
1481271438915087,1,2,3,-5,-8,-2,1,-4
1481271438915087,5,6,1,4,-3,4,3,-1
1481271438915587,0,3,2,5,1,0,3,-1
1481271438915587,1,2,5,-2,1,-4,2,4
1481271438929090,-6,-2,-6,-4,1,-6,-6,-4
1481271438929090,-4,-3,-3,-4,-5,-2,4,6
1481271438937102,-6,-2,-2,-3,-1,-1,-1,-5
1481271438937102,-6,-9,-4,-2,3,-5,-7,-7
1481271438952137,-1,-9,-1,-10,-2,0,-4,-4
1481271438952137,0,-4,2,-1,4,3,-1,2
1481271438960107,-4,2,3,-2,-5,3,-3,-1
1481271438960107,2,0,2,-3,-1,0,3,-1
1481271438975155,6,4,0,7,8,9,9,7
1481271438975155,3,-1,-1,1,5,-3,2,4
1481271438990183,-5,-5,-1,-1,2,-5,-10,-3
1481271438990183,-2,1,2,0,0,-1,-6,1
1481271438992107,0,-5,-5,-6,-7,-6,-2,-5
1481271438992107,-5,-4,-7,-3,-12,-2,-3,-9
1481271438997104,-3,-5,-3,-10,-2,-8,-2,-2
1481271438997104,4,4,-5,0,-4,2,3,-3
1481271439020632,-4,0,2,5,-3,0,2,0
1481271439020632,2,3,-1,-3,-3,-7,1,2
1481271439021632,7,7,1,0,-4,8,4,4
1481271439021632,1,1,1,3,0,1,5,5
1481271439035226,-3,-8,1,-2,-2,0,2,-4
1481271439035226,-3,3,-1,0,4,-1,2,8
1481271439035226,2,1,0,0,4,-3,-1,-1
1481271439035226,-12,-5,-4,-4,0,-1,-5,-8
1481271439058234,-3,-4,-1,-1,0,-3,-8,1
1481271439058234,1,1,-3,-4,-5,-6,-2,-3
1481271439059147,-4,-2,0,-6,-5,3,0,-5
1481271439059147,4,-3,-3,-1,0,-4,-1,-3
1481271439072226,1,1,2,1,0,-4,-1,0
1481271439072226,-7,-2,0,-3,-5,1,-1,-1
1481271439087147,-4,-4,0,6,3,7,1,3
1481271439087147,6,6,-2,-1,-4,3,2,0
1481271439095146,0,2,1,0,-1,-1,5,4
1481271439095146,-1,2,4,0,-3,6,-4,-7
1481271439095146,1,3,-2,0,-3,-4,1,-2
1481271439095146,-2,-2,-1,-5,-6,-8,-5,-1
1481271439109147,-2,0,-3,-1,0,-7,-10,-7
1481271439109147,1,-3,-4,-4,4,-2,-9,-7
1481271439125155,-5,4,0,-5,-1,-3,-1,-1
1481271439125155,-10,-11,-6,-10,-3,-4,-6,0
1481271439132196,-2,3,-3,2,2,0,0,-7
1481271439132196,1,1,1,3,4,0,5,7
1481271439139166,2,2,1,2,1,-5,2,3
1481271439139166,-3,7,2,3,2,0,-4,-7
1481271439163164,3,-1,-1,2,4,12,4,8
1481271439163164,-1,-8,-1,-5,-9,-3,-2,-1
1481271439164164,-6,-7,-7,-1,-3,1,-6,-11
1481271439164164,-4,-3,0,-7,-9,-6,-1,-5
1481271439169164,-3,-2,-1,-4,-8,-5,-3,2
1481271439169164,-2,-3,1,-5,-3,-7,-5,-9
1481271439177164,-1,-8,-2,-1,2,0,0,-1
1481271439177164,8,5,-1,3,2,2,5,12
1481271439191164,-3,1,-4,-1,-2,1,1,-1
1481271439191164,2,-3,-4,0,-3,-4,-4,0
1481271439200166,6,8,2,6,-4,2,2,8
1481271439200166,-2,-7,0,1,2,-2,-5,0
1481271439215171,-7,-5,1,-2,-5,-2,-1,-6
1481271439215171,-7,-2,-1,2,-1,1,-3,-1
1481271439215671,3,-4,-1,3,-3,-1,-1,5
1481271439215671,-6,-3,0,-5,-3,2,-8,-8
1481271439230178,1,-1,-2,2,-2,-2,-6,-3
1481271439230178,4,1,-1,-1,1,2,4,1
1481271439237179,-2,-2,1,-3,-2,0,-3,-7
1481271439237179,-1,4,0,-1,-3,1,-6,-5
1481271439268180,2,3,2,-6,-5,-9,-1,2
1481271439268180,3,-2,-1,-1,-6,-2,2,0
1481271439269180,-9,2,-4,2,4,0,-2,-2
1481271439269180,0,1,-3,3,3,7,3,5
1481271439275182,4,3,-3,3,2,1,0,0
1481271439275182,-4,0,-5,1,3,1,-3,-4
1481271439275182,1,-6,-1,-6,-4,-1,-7,-7
1481271439275182,0,0,1,-5,-3,-5,-1,1
1481271439298182,-3,2,-2,-6,0,-4,-6,-5
1481271439298182,-5,1,-4,-4,-3,-1,1,0
1481271439299186,4,2,-2,-2,-10,-2,2,4
1481271439299186,1,0,0,0,1,3,3,5
1481271439312249,-1,-1,5,4,0,0,0,4
1481271439312249,1,5,1,3,3,-1,5,4
1481271439320192,1,3,-2,-2,-1,1,-3,5
1481271439320192,0,2,0,5,1,0,0,-6
1481271439335194,-7,2,1,-4,4,0,-3,-3
1481271439335194,-2,0,0,-2,-5,-4,-6,-1
1481271439335694,-5,-2,2,0,2,-2,-3,-7
1481271439335694,-1,-3,0,0,-3,-3,-2,-3
1481271439349695,3,-2,-4,-6,-5,-1,-1,0
1481271439349695,5,-2,-2,-2,2,1,-1,1
1481271439365197,3,1,3,-2,-1,-3,2,1
1481271439365197,5,4,-2,2,0,1,4,7
1481271439371698,3,3,0,-1,-10,3,0,2
1481271439371698,0,0,0,-1,-2,-3,0,0
1481271439380200,-2,0,-1,-2,-3,2,0,-2
1481271439380200,-7,-7,-3,-10,-5,-3,-1,-6
1481271439403203,-4,-8,-2,-2,-2,-2,-2,-5
1481271439403203,-4,-5,3,2,-3,5,2,-9
1481271439404203,2,-2,1,-2,1,1,-1,6
1481271439404203,2,1,-1,-2,1,-2,-3,-5
1481271439409204,3,-1,6,-3,0,4,-4,-3
1481271439409204,-4,1,-2,0,0,-2,0,4
1481271439425206,-2,1,0,1,-1,-2,6,-3
1481271439425206,-3,-2,-1,-1,0,-1,-2,0
1481271439440707,-8,2,1,1,2,-3,5,2
1481271439440707,10,0,-3,-1,-4,0,0,0
1481271439441707,0,-2,-4,-4,0,-1,2,2
1481271439441707,-3,1,0,5,-2,-5,-4,-5
1481271439454209,5,3,-1,3,2,3,5,0
1481271439454209,-5,1,1,1,-7,1,-2,-3
1481271439470710,-4,1,2,-3,-4,-2,-6,-2
1481271439470710,1,-5,-1,-8,-5,-5,-7,1
1481271439472211,0,-4,-2,-4,-1,1,0,9
1481271439472211,1,-4,-2,-1,-2,-2,-1,-5
1481271439477711,3,3,3,-3,-4,-3,-5,1
1481271439477711,11,5,1,12,4,2,7,8
1481271439491713,6,9,3,7,6,0,5,1
1481271439491713,-5,-5,1,-1,2,4,-4,-5
1481271439507717,-3,2,-3,2,3,3,4,0
1481271439507717,-3,-7,-3,1,1,2,-1,-2
1481271439514773,-6,0,-3,-5,-3,-10,-10,-13
1481271439514773,-4,-1,-3,-9,-3,-6,-5,-7
1481271439522718,3,-5,-1,2,0,2,0,-2
1481271439522718,-5,-1,-3,2,-4,-2,2,0
1481271439545720,-5,-2,-3,-2,-4,4,3,-4
1481271439545720,3,3,4,5,-1,1,5,9
1481271439546720,3,2,-4,-3,-3,-5,0,3
1481271439546720,-2,-1,2,-1,-1,-3,-6,-5
1481271439552221,2,-1,-8,-3,0,0,-1,2
1481271439552221,-4,2,-1,-2,-1,2,0,-2
1481271439560256,-4,0,1,1,-1,-1,-4,-7
1481271439560256,-6,-7,-1,-4,-6,-3,2,-6
1481271439574723,1,-2,1,-2,-3,0,1,3
1481271439574723,-6,-3,3,-5,-4,-2,-3,-2
1481271439582725,0,1,-5,2,-1,-3,-2,2
1481271439582725,-1,3,-1,-2,-1,-1,0,0
1481271439598291,-2,1,5,1,-4,-2,-4,3
1481271439598291,-4,3,0,2,-1,0,-5,0
1481271439598726,1,-1,-6,-4,-2,-5,7,2
1481271439598726,1,-1,-4,0,2,1,-2,7
1481271439612277,-2,-7,-3,-2,1,1,-3,-3
1481271439612277,-1,-1,1,-4,1,-2,-2,-1
1481271439620293,-4,0,-1,-5,-1,0,-4,-2
1481271439620293,-4,-5,-2,-8,-4,0,-9,-11
1481271439634295,2,-9,-1,-2,0,1,0,1
1481271439634295,2,-3,-1,0,-5,-4,-7,2
1481271439642732,1,-4,-1,-2,2,-3,-2,-3
1481271439642732,2,4,0,0,7,-2,3,0
1481271439658298,0,0,-6,-2,-5,-3,4,6
1481271439658298,4,-1,1,2,2,1,1,4
1481271439659298,-4,-2,-3,-2,-2,2,-2,-4
1481271439659298,3,3,1,2,1,4,5,7
1481271439671735,0,-1,3,-2,-5,-3,-1,-1
1481271439671735,-1,-5,-5,-10,-2,-5,-4,-9
1481271439680301,1,-2,0,-2,-2,-5,-6,-8
1481271439680301,0,0,0,-4,-4,-1,-1,-1
1481271439694790,-5,-6,-1,-1,-2,-5,-10,-9
1481271439694790,-1,2,-1,1,1,1,-4,-3
1481271439702740,6,5,6,2,1,3,7,9
1481271439702740,1,0,5,-4,-2,-2,3,1
1481271439717743,-7,-2,6,-4,-2,-5,-1,-5
1481271439717743,2,0,0,6,2,2,12,9
1481271439718306,1,-3,0,-4,-3,1,2,3
1481271439718306,-4,-4,-3,-6,-5,1,-8,-9
1481271439731743,2,-1,-4,3,1,1,-1,0
1481271439731743,0,-2,-5,-4,6,-2,4,0
1481271439740307,-7,-11,-1,0,2,1,-3,-4
1481271439740307,-5,7,1,-5,-5,-7,-4,-8
1481271439754306,8,2,2,-3,1,3,8,5
1481271439754306,0,-1,0,0,-3,-5,-3,2
1481271439762749,-6,-2,-1,-1,-6,-3,-2,-3
1481271439762749,4,6,-5,4,4,3,6,2
1481271439777816,-3,1,-1,1,1,1,-1,5
1481271439777816,-6,-2,6,0,-2,2,-1,-6
1481271439778307,-1,-3,2,-1,5,-1,4,-4
1481271439778307,4,-4,0,5,-1,-1,-3,3
1481271439791752,-3,-1,1,-1,-4,-6,-1,-5
1481271439791752,-2,-7,-6,-9,-4,-4,-3,-1
1481271439807754,0,7,0,-3,-5,-3,2,-4
1481271439807754,0,-4,-1,-3,1,2,-3,-3
1481271439814754,-6,-1,-4,-4,-5,0,-7,-9
1481271439814754,-2,-2,-1,-2,-6,6,3,1
1481271439822816,1,1,-1,3,-3,0,1,5
1481271439822816,0,3,-1,3,-1,-4,-2,3
1481271439837818,8,9,-2,2,2,-1,2,5
1481271439837818,3,-1,0,-1,-2,-2,3,2
1481271439838306,-1,-6,-2,-2,-4,-1,-5,-6
1481271439838306,-10,-6,-4,-7,-6,2,5,-2
1481271439851759,-4,-8,-7,-8,-4,0,-2,-1
1481271439851759,-2,1,3,-5,-6,-7,-8,-7
1481271439860306,4,1,3,3,2,-1,-6,-5
1481271439860306,0,0,0,-8,-5,-3,-4,-4
1481271439874307,2,1,-1,-3,-9,-2,2,-4
1481271439874307,5,2,-4,5,-2,-2,3,4
1481271439882763,-1,-2,0,-2,0,-1,3,6
1481271439882763,1,-9,1,-1,4,0,2,3
1481271439897829,1,0,2,4,-2,-1,3,3
1481271439897829,-2,3,-1,3,3,-1,-1,-3
1481271439898306,3,0,-4,-3,1,-3,0,0
1481271439898306,-4,-1,-5,1,-1,-3,-2,-5
1481271439912269,-1,-5,-1,-3,0,-1,-2,-11
1481271439912269,-1,-2,4,1,4,0,-3,1
1481271439920306,0,-2,1,-6,-6,-2,-4,-1
1481271439920306,3,5,0,0,-5,-1,-1,-1
1481271439934306,3,-2,-1,-2,0,2,-1,7
1481271439934306,-1,-1,-8,-3,-1,0,0,1
1481271439942772,-5,-2,-3,-2,0,1,-3,-3
1481271439942772,-1,1,0,0,5,-4,2,3
1481271439957809,-1,0,0,-2,-2,-1,3,2
1481271439957809,1,-5,-5,-7,-3,-3,-2,-2
1481271439958306,-4,-8,-7,-4,-3,-2,-3,-5
1481271439958306,5,-5,4,3,-1,0,1,0
1481271439971774,-2,0,1,0,-7,-4,-4,1
1481271439971774,-1,-1,-2,-1,1,-3,-4,-6
1481271439980302,2,-2,1,-4,-7,0,-2,-1
1481271439980302,-3,-1,-1,0,-3,-1,2,6
1481271439994778,-5,-4,-5,-2,6,-1,-3,-6
1481271439994778,-1,-1,4,2,-3,-1,6,-2
1481271440002845,8,2,1,5,0,7,3,9
1481271440002845,-3,-2,1,3,0,5,2,10
1481271440017307,-6,-4,1,-4,5,0,-1,-3
1481271440017307,1,0,0,-1,-2,0,2,1
1481271440018307,-1,0,-5,0,-3,-6,-4,-4
1481271440018307,-4,-5,-2,-7,-6,-2,-7,-11
1481271440031782,-2,-4,-3,-6,-1,-7,-4,-8
1481271440031782,3,3,1,0,0,0,2,-2
1481271440040306,-7,-7,3,6,3,2,1,2
1481271440040306,0,-2,-2,-5,1,-1,0,-1
1481271440054306,5,7,-3,4,1,1,0,6
1481271440054306,6,-2,-4,0,0,2,4,4
1481271440062850,-3,-2,-3,3,1,1,2,-5
1481271440062850,4,2,-2,0,3,1,5,2
1481271440077851,0,-3,0,-2,2,1,1,-4
1481271440077851,-12,-7,-3,-2,3,0,-4,-3
1481271440078306,1,0,-1,0,0,-7,-6,0
1481271440078306,-1,-4,0,1,2,2,1,2
1481271440091789,0,2,3,3,-3,-2,-1,1
1481271440091789,5,2,-3,1,4,-1,-2,4
1481271440100306,0,3,-3,-4,2,-1,2,4
1481271440100306,3,-2,-2,-1,-5,-3,0,0
1481271440114306,-1,-5,-1,0,-3,3,1,-2
1481271440114306,-3,-3,0,-1,3,2,1,4
1481271440122857,-1,-2,1,-2,-4,4,3,-2
1481271440122857,-5,-7,3,3,7,-1,3,-7
1481271440137843,-3,-1,-2,-2,2,1,-2,1
1481271440137843,-1,1,1,-3,1,-1,-2,0
1481271440138306,-7,-2,-3,-1,4,-1,-5,-4
1481271440138306,0,5,0,-4,-7,0,-9,-2
1481271440151797,1,0,2,0,-2,5,1,-2
1481271440151797,-2,-4,-1,-2,1,-1,-1,0
1481271440160308,-1,1,0,-2,5,-4,0,-1
1481271440160308,7,2,-1,3,3,3,2,3
1481271440174800,3,1,-2,1,1,3,2,3
1481271440174800,-3,4,2,4,-1,-1,-3,2
1481271440182845,4,-3,-1,1,1,2,4,4
1481271440182845,1,0,-1,-2,-1,-6,-3,0
1481271440197846,-9,-4,-2,-1,-8,0,-6,-9
1481271440197846,-2,-1,-2,-6,-6,-3,0,-7
1481271440198307,-1,-3,-5,-4,-2,0,1,-5
1481271440198307,-7,-2,-2,-8,-3,-4,-10,-4
1481271440211805,-3,5,3,0,-3,-4,2,-1
1481271440211805,7,0,1,3,3,0,2,4
1481271440220306,4,2,3,2,-1,4,6,0
1481271440220306,-5,2,1,3,2,6,2,0
1481271440234307,8,0,1,-1,6,-2,5,4
1481271440234307,-4,-2,-2,-3,-4,1,6,2
1481271440242843,-3,0,1,-2,2,-5,-9,-5
1481271440242843,0,2,0,-3,-4,-2,0,-7
1481271440257311,1,-4,-3,3,1,-1,3,3
1481271440257311,-3,-5,-2,0,-4,-2,-2,-8
1481271440258310,-1,-2,2,-3,-3,-1,-4,1
1481271440258310,0,-1,-2,3,6,-1,4,0
1481271440271813,-1,1,0,-1,-1,-2,-3,1
1481271440271813,1,2,3,-2,-5,-3,-6,-8
1481271440280314,-1,5,-2,2,-2,0,9,2
1481271440280314,3,1,-3,3,-6,-2,-3,3
1481271440294315,-6,-3,-4,1,1,-6,-3,-6
1481271440294315,-3,-3,-1,-2,-1,3,-4,3
1481271440303316,2,2,0,5,5,4,-1,5
1481271440303316,-6,-4,5,-4,-1,-1,-3,-3
1481271440316818,-1,-2,-6,1,-1,0,-5,-4
1481271440316818,3,2,-2,-6,-10,0,4,-2
1481271440325826,-2,-2,-1,-10,-4,-4,-10,-4
1481271440325826,-3,-4,0,0,-2,-1,-6,0
1481271440331827,3,0,2,-1,-4,-4,-1,7
1481271440331827,0,2,-1,-3,-3,-2,-1,-1
1481271440340827,-2,-3,0,2,-2,2,1,3
1481271440340827,2,1,-1,0,4,1,4,0
1481271440362829,-2,-1,-3,-5,-2,3,3,1
1481271440362829,2,-3,1,4,6,0,-4,-6
1481271440364829,-4,-4,2,-4,-7,-4,-10,-6
1481271440364829,-3,-5,-3,-5,-8,0,0,-3
1481271440376829,-2,-6,0,-2,-5,-1,0,-6
1481271440376829,-3,-4,0,1,-2,-2,0,-2
1481271440385830,0,-2,-4,-7,-3,1,0,4
1481271440385830,5,0,-4,-5,-3,-3,-2,3
1481271440391829,-1,0,1,0,8,2,5,-1
1481271440391829,-1,2,-3,2,1,1,5,9
1481271440400830,-4,-3,3,-2,-3,-1,6,2
1481271440400830,-4,-1,1,0,2,0,2,-2
1481271440414340,-2,-4,-4,-4,-2,-1,-1,-1
1481271440414340,-3,-5,-1,-6,-6,-5,-1,-6
1481271440422889,-4,-5,-5,-4,-1,-2,-3,-4
1481271440422889,-4,2,4,-1,3,1,-1,-1
1481271440436848,3,-3,-1,-1,-2,-6,4,0
1481271440436848,-3,-2,-3,-3,0,0,-6,4
1481271440445850,1,1,1,4,4,-2,0,-3
1481271440445850,2,5,-5,2,-4,2,5,1
1481271440451850,2,1,0,3,0,1,3,4
1481271440451850,1,0,-1,0,5,3,-2,-6
1481271440460850,3,5,0,5,0,1,2,2
1481271440460850,3,-4,0,-3,-7,-4,-3,-5
1481271440473928,-3,0,1,-3,-2,1,0,-4
1481271440473928,0,3,-2,1,1,-4,-5,-3
1481271440482916,2,-3,-6,-2,-2,-2,4,1
1481271440482916,3,-1,1,1,6,-1,1,0
1481271440496852,-6,-4,0,-10,-5,-3,-5,-6
1481271440496852,-1,-3,0,-8,-3,1,1,3
1481271440505873,1,-1,-3,3,0,-1,0,-2
1481271440505873,1,-1,1,-5,-6,-5,-7,-3
1481271440511870,2,1,-1,1,2,4,2,2
1481271440511870,3,3,-1,0,-2,2,3,7
1481271440520885,2,6,-1,2,5,3,1,4
1481271440520885,-4,-5,0,-5,-2,-2,-7,-1
1481271440533881,3,1,-5,-6,0,-3,-4,-1
1481271440533881,-1,-6,-3,-3,-3,-7,-1,-4
1481271440542943,-10,-7,-2,-13,-11,-5,-7,-9
1481271440542943,-4,0,-3,-1,-1,0,-1,-1
1481271440556963,1,2,2,-1,1,-1,1,2
1481271440556963,-3,-4,2,-1,-7,3,-1,-3
1481271440565881,0,-5,3,-2,0,-5,3,0
1481271440565881,6,1,-4,4,2,0,7,7
1481271440580880,2,5,-6,1,2,-1,4,2
1481271440580880,-7,1,1,-5,-1,-8,-2,-9
1481271440581903,-1,0,-3,-3,2,3,0,0
1481271440581903,-1,3,0,1,-5,-3,-4,4
1481271440593965,-5,-5,3,-1,-4,-6,-10,-5
1481271440593965,0,-5,0,-4,-3,-3,-5,-4
1481271440602946,5,1,3,2,3,0,6,2
1481271440602946,-2,-2,-2,-3,-5,3,-1,-5
1481271440616890,-2,-4,-2,-2,-7,-2,3,-4
1481271440616890,4,2,-3,-2,-5,3,1,6
1481271440625900,2,0,3,2,-3,1,-1,2
1481271440625900,-5,0,-1,-4,1,-2,1,-6
1481271440639981,4,-4,0,-3,-1,4,5,2
1481271440639981,-1,0,-2,1,0,4,0,-5
1481271440646897,0,-3,1,0,-8,-2,-11,-4
1481271440646897,-2,-3,-6,-5,1,-2,4,-2
1481271440654406,-1,-1,-1,-1,-3,-1,-3,4
1481271440654406,-7,-5,1,3,-1,-4,-9,-9
1481271440663406,0,3,-4,1,-1,-2,-3,-3
1481271440663406,0,-3,-4,-3,-11,-7,-2,-2
1481271440676806,-2,-5,-5,-2,-1,-4,-7,-2
1481271440676806,0,-2,-1,0,7,0,1,2
1481271440685806,1,1,-1,1,-2,0,5,3
1481271440685806,-2,-3,2,0,2,1,-2,3
1481271440699807,-5,3,1,7,2,3,-1,-2
1481271440699807,4,3,-2,8,8,3,9,4
1481271440706902,-1,1,-3,-1,1,0,0,-5
1481271440706902,-7,-6,-2,0,3,-2,-5,-6
1481271440714403,-2,3,3,-6,-2,-5,-7,-3
1481271440714403,-3,-7,-3,-4,-6,-4,-4,0
1481271440722975,-2,-7,2,-7,-5,-7,-5,-5
1481271440722975,-2,-3,0,0,6,0,-2,4
1481271440736993,4,6,-1,6,3,-2,2,5
1481271440736993,3,-3,-4,-2,2,4,5,8
1481271440745912,1,1,1,3,4,-3,-5,0
1481271440745912,3,1,1,10,5,3,6,5
1481271440760913,1,-5,-4,1,2,4,5,-4
1481271440760913,-5,1,3,0,0,-2,-5,-7
1481271440761909,-5,-3,-3,-5,-4,0,5,-5
1481271440761909,2,-4,-4,-1,3,1,2,0
1481271440773914,-4,-5,-4,-2,2,1,-4,-3
1481271440773914,-2,4,-1,2,2,-5,-5,-4
1481271440782979,5,2,-1,6,3,1,4,6
1481271440782979,4,2,1,-3,-5,2,4,-1
1481271440796913,-4,-5,-4,-2,-5,-2,-2,-3
1481271440796913,8,1,3,1,9,4,1,5
1481271440806005,5,0,2,-4,2,3,2,1
1481271440806005,-6,1,-1,1,3,-4,-3,-9
1481271440828014,-1,1,4,11,4,1,5,4
1481271440828014,4,1,0,3,-2,-2,-1,1
1481271440830077,-7,-2,-9,-2,-1,-2,-7,-5
1481271440830077,0,-2,-1,-1,0,4,0,-9
1481271440834029,5,-2,-7,-4,-1,-2,-2,-1
1481271440834029,-4,-3,-1,-8,-9,-4,-2,-3
1481271440843014,-4,-4,-1,-5,1,-1,-3,-4
1481271440843014,2,2,1,2,0,-5,-3,-2
1481271440857014,-1,-3,-3,2,1,0,2,8
1481271440857014,-4,-4,-1,2,3,0,1,5
1481271440866016,-2,-2,4,4,3,3,5,3
1481271440866016,-3,-3,-2,-4,-1,-1,3,3
1481271440880016,2,-3,1,-4,-5,-4,-1,-2
1481271440880016,-8,2,2,-1,-3,-1,0,-5
1481271440882017,-3,-5,-5,-2,-5,-2,-4,-3
1481271440882017,-5,-8,-2,-5,-3,-1,-6,-1
1481271440894043,-1,1,2,-6,0,-2,-3,-7
1481271440894043,3,0,-2,-5,-10,-2,-3,4
1481271440903018,-3,0,1,0,3,2,2,5
1481271440903018,-1,2,4,4,7,3,-2,10
1481271440917527,3,1,-2,-2,5,3,1,0
1481271440917527,1,-1,-2,1,-4,5,9,0
1481271440926035,-7,-2,2,-1,0,-2,-5,-4
1481271440926035,2,4,4,0,-3,-4,2,1
1481271440941070,-6,-6,0,1,0,-2,-3,-1
1481271440941070,-6,-5,-2,-5,2,-5,-6,-5
1481271440942035,-6,2,-3,-5,-3,2,-3,-2
1481271440942035,-2,-1,-1,-3,-6,3,-1,-2
1481271440954039,2,-2,-1,-2,-6,-1,1,-2
1481271440954039,-4,0,4,2,-3,4,-1,-2
1481271440963039,3,1,-5,0,0,4,3,3
1481271440963039,3,6,-6,3,-1,1,0,2
1481271440977037,-5,6,5,1,-3,0,-2,-7
1481271440977037,-1,-1,1,1,1,-1,-5,0
1481271440986101,0,-3,-3,-4,-10,-2,8,-1
1481271440986101,-5,-1,-2,-5,1,1,-3,-1
1481271441000041,-5,-1,-5,-2,-5,-4,-6,-7
1481271441000041,1,2,-5,1,-1,-2,0,2
1481271441007059,-1,0,0,-3,-3,-8,-5,-5
1481271441007059,-4,-4,-1,-5,-1,-4,-3,-7
1481271441014559,1,1,-3,-6,-5,1,-2,5
1481271441014559,-1,0,-5,1,0,3,1,3
1481271441023065,-1,1,-2,-1,-8,-1,-9,1
1481271441023065,1,2,1,3,-3,-4,3,2
1481271441037160,4,7,0,3,4,3,5,4
1481271441037160,-1,-2,1,3,4,3,6,-1
1481271441046065,-4,-3,2,1,3,-1,-1,-4
1481271441046065,1,-1,0,3,2,1,2,3
1481271441060068,-3,-3,1,-4,-3,-2,-7,-1
1481271441060068,-4,-1,2,-6,-3,-15,-9,-10
1481271441067150,-3,-4,4,-2,-4,-8,-4,-5
1481271441067150,5,2,2,-2,-8,1,-1,3
1481271441074070,-1,-4,2,1,-1,-1,2,-2
1481271441074070,4,-1,0,2,-1,1,-2,4
1481271441083067,5,9,-3,1,6,0,7,9
1481271441083067,0,5,-3,-2,-3,2,-1,-1
1481271441097068,-4,1,0,1,0,-2,-2,-2
1481271441097068,0,0,-1,-1,-4,-3,6,2
1481271441106080,-1,1,2,6,1,3,3,-1
1481271441106080,-4,-6,-6,2,-1,-2,-3,-6
1481271441120079,1,1,-2,-2,-2,0,-3,-4
1481271441120079,0,1,-2,-6,2,-1,-1,0
1481271441127221,-6,-4,-1,-1,-3,-2,-1,-2
1481271441127221,2,3,2,-1,-3,1,4,-5
1481271441134217,0,1,-3,-3,-5,-1,5,3
1481271441134217,3,-1,0,3,-1,4,-3,6
1481271441143164,3,3,0,1,0,-4,-5,-1
1481271441143164,2,-2,-1,3,4,-6,-7,3
1481271441156240,-5,-7,-1,-3,1,-3,-2,2
1481271441156240,1,2,-1,-3,0,-1,-1,-4
1481271441166225,1,-1,0,1,-2,2,-1,-2
1481271441166225,-2,-2,1,-5,-1,-2,2,0
1481271441179161,1,-1,2,-1,-3,2,-4,-3
1481271441179161,-5,-6,0,-7,-8,0,-4,-2
1481271441196160,4,1,-1,-3,-3,-1,-7,0
1481271441196160,-1,0,-1,-4,-5,-4,-4,-2
1481271441197160,-1,0,2,0,3,0,-4,-5
1481271441197160,0,3,-1,-1,1,0,3,6
1481271441203160,-2,3,-1,0,5,7,8,3
1481271441203160,-7,-4,-3,3,0,5,-4,1
1481271441217224,5,6,-1,2,-2,-4,5,5
1481271441217224,1,-1,-4,0,0,-3,-2,-6
1481271441225177,-1,-7,-1,-5,0,-5,-11,-11
1481271441225177,-6,-3,2,-3,2,0,-2,-4
1481271441239180,-2,-3,-1,-4,4,-3,-5,0
1481271441239180,-5,0,-5,-2,2,1,-4,-7
1481271441248178,0,-2,-1,-1,-1,-1,-1,-1
1481271441248178,12,7,1,1,-2,0,2,6
1481271441254178,6,6,-1,2,-3,-1,2,3
1481271441254178,2,2,3,1,-2,-6,-5,0
1481271441263179,5,1,-2,5,1,-1,7,5
1481271441263179,0,3,0,2,-1,2,3,-2
1481271441276182,-11,-6,2,-5,-3,0,-7,-5
1481271441276182,-5,-3,-1,-1,3,-1,-2,-2
1481271441285182,1,3,-4,-3,-7,1,-1,1
1481271441285182,-2,-11,-3,-6,-2,0,-5,-4
1481271441299181,-2,0,3,0,0,-2,0,-1
1481271441299181,4,4,-6,0,-6,5,2,0
1481271441308189,-2,-3,0,-1,-4,2,1,-2
1481271441308189,-3,-4,-3,-2,-1,4,3,-4
1481271441314190,3,2,-3,3,-4,5,2,7
1481271441314190,-3,2,6,-2,-2,3,4,7
1481271441323199,-4,-2,-3,1,2,-6,-4,-7
1481271441323199,1,4,-1,-1,-5,1,-5,-2
1481271441337234,2,-7,-3,0,2,-2,2,0
1481271441337234,-2,-1,3,2,-5,-2,-5,-6
1481271441346210,-5,-2,0,-2,1,5,1,-1
1481271441346210,1,2,1,-2,-2,0,4,1
1481271441368202,-3,-4,-4,-7,-8,-3,1,-8
1481271441368202,2,-1,0,-2,-2,1,-2,-7
1481271441369200,2,5,0,-1,-3,1,2,5
1481271441369200,3,-4,-2,2,2,-3,2,3
1481271441374202,0,4,3,1,7,2,3,-3
1481271441374202,-2,2,-2,2,1,-4,2,0
1481271441383202,-2,-2,-5,-3,-1,-2,3,1
1481271441383202,-2,-1,2,4,1,-4,-5,-6
1481271441396201,-4,0,-1,-3,-9,-2,-11,-4
1481271441396201,2,1,-2,-5,-4,-4,-2,-4
1481271441405802,-2,2,0,-1,-2,-6,-6,-7
1481271441405802,-4,-3,-1,-3,-7,-2,-5,-2
1481271441419302,-1,-5,-4,-4,-5,1,-3,3
1481271441419302,2,0,-3,2,-2,2,1,4
1481271441428312,3,4,-1,-1,-5,-2,-6,2
1481271441428312,6,7,-1,7,0,7,5,7
1481271441434310,-2,-5,-6,-1,-3,-1,1,-1
1481271441434310,-5,-3,-2,0,0,2,-3,0
1481271441443311,-4,-1,0,0,-1,-3,-4,2
1481271441443311,-7,-5,-1,-6,-1,-7,-5,-3
1481271441456394,-8,1,0,-4,1,1,-8,-5
1481271441456394,-10,-5,3,0,4,3,-1,-7
1481271441465313,0,-8,1,-6,-1,-1,-4,4
1481271441465313,-3,5,-3,0,3,-4,-7,-2
1481271441479312,3,2,2,5,6,-3,4,-2
1481271441479312,8,3,-5,2,0,0,7,6
1481271441488313,1,-2,0,3,-2,-3,1,-1
1481271441488313,-2,-2,0,0,0,0,-4,-3
1481271441503317,-2,-7,-2,-1,-2,-6,1,-3
1481271441503317,-1,-5,-1,-4,-4,-5,1,-2
1481271441504314,-7,-4,0,-6,-11,-2,-7,-6
1481271441504314,-1,-1,2,-5,-5,-5,-6,-3
1481271441516823,3,-2,-1,0,-2,-3,-4,1
1481271441516823,1,-1,-3,-3,-3,-5,-4,0
1481271441525351,-7,0,-4,-3,-4,-4,-6,-7
1481271441525351,3,-2,0,-6,6,-2,-5,-3
1481271441539435,-1,-1,-4,-3,-1,2,2,1
1481271441539435,-5,-3,0,-5,-4,-3,-1,-5
1481271441555354,-1,-5,3,0,3,1,2,2
1481271441555354,1,1,-3,4,-1,1,9,7
1481271441563423,2,0,-1,3,2,7,1,8
1481271441563423,-4,-5,3,-2,-2,-3,-3,-8
1481271441564354,-2,3,-1,0,2,5,4,3
1481271441564354,-1,-5,2,0,2,2,-5,0
1481271441585353,-6,-5,-1,-7,-4,-4,-4,-5
1481271441585353,-4,-7,0,-7,-6,-3,-10,-1
1481271441587360,3,0,2,0,3,-4,2,-2
1481271441587360,-6,-1,-2,-2,1,-4,-4,0
1481271441599438,0,4,7,6,6,1,2,5
1481271441599438,1,8,-2,3,-2,2,8,8
1481271441608468,4,7,0,2,-3,1,7,0
1481271441608468,-4,1,2,-5,-10,-1,-3,-1
1481271441623539,2,-2,-1,-2,-1,1,-1,3
1481271441623539,1,2,0,-2,-4,-4,-3,-6
1481271441624531,-1,-1,0,1,0,3,-7,-8
1481271441624531,-4,-6,2,-9,-11,-6,-13,-6
1481271441636561,5,6,2,-1,-6,-3,-5,-4
1481271441636561,0,-1,3,0,4,0,0,1
1481271441645509,2,-1,1,1,-3,1,-1,3
1481271441645509,3,1,1,1,-4,-3,6,1
1481271441659482,0,6,-4,0,-3,-3,0,1
1481271441659482,-3,-1,-5,0,3,-3,-6,1
1481271441668504,3,3,1,-2,1,-1,6,1
1481271441668504,-2,1,-1,1,0,3,3,-4
1481271441690485,-11,1,1,-4,-9,-4,3,-2
1481271441690485,-3,0,2,-1,1,-5,-1,-5
1481271441692481,-1,-3,-5,-1,-2,0,0,-2
1481271441692481,3,3,0,2,-2,0,-6,-8
1481271441696483,-3,-3,-4,-1,3,1,-4,-7
1481271441696483,6,0,-2,-5,-4,-2,2,0
1481271441705987,0,-5,5,-2,-5,2,-3,-2
1481271441705987,-1,-1,-4,3,5,1,0,2
1481271441728559,3,2,0,-4,1,1,4,6
1481271441728559,4,-1,-2,3,0,3,0,2
1481271441729495,2,-4,-2,-2,-1,1,-1,0
1481271441729495,-2,1,-3,2,-2,2,10,5
1481271441767534,-2,-6,1,-2,-1,-6,-1,2
1481271441767534,-2,-3,-2,-4,-7,-2,-9,-8
1481271441768498,-1,-2,1,-5,-1,-3,-6,-1
1481271441768498,-2,-1,-4,-7,-4,4,-4,-3
1481271441769498,-1,-3,3,-2,-7,-2,-8,-7
1481271441769498,2,0,2,4,3,4,0,3
1481271441773505,7,-1,-4,6,0,3,8,10
1481271441773505,2,1,2,5,0,-1,4,4
1481271441779498,0,-1,-6,0,0,2,-5,1
1481271441779498,4,5,0,1,-6,1,1,6
1481271441795534,2,6,0,3,1,-2,1,2
1481271441795534,-1,-5,-4,-4,-3,-5,-8,-5
1481271441803566,0,-3,-1,4,-1,5,-3,-5
1481271441803566,-2,0,1,-2,-1,-5,-1,-3
1481271441804564,-5,-4,3,-1,-3,-5,-7,-8
1481271441804564,3,4,5,0,-6,0,0,1
1481271441817011,6,4,-1,1,0,-3,7,5
1481271441817011,-3,0,-4,0,-8,-2,1,3
1481271441833518,-1,-2,5,4,0,-4,0,-2
1481271441833518,0,4,-4,2,3,0,3,6
1481271441839516,5,2,0,-4,-3,-2,3,1
1481271441839516,-4,-4,-1,-1,1,0,-5,-6
1481271441848516,-2,-2,-3,-1,-5,0,-3,-3
1481271441848516,1,-4,-2,-1,-4,1,4,1
1481271441863520,-3,-6,0,-3,0,-2,-6,-3
1481271441863520,-1,0,0,0,1,-3,0,-6
1481271441865517,6,0,-2,-2,-8,-3,-3,2
1481271441865517,2,1,-1,-5,0,2,-3,-4
1481271441876522,-2,0,2,-2,-1,-1,-2,-6
1481271441876522,3,5,-2,1,-2,3,1,7
1481271441885518,-1,4,-2,1,4,0,1,6
1481271441885518,-4,-2,-2,-1,-6,-1,0,-3
1481271441899613,-3,-3,-3,-4,-8,0,1,4
1481271441899613,1,0,7,-2,-4,0,-2,2
1481271441908526,-1,-3,-1,-5,1,-1,1,-2
1481271441908526,-2,-6,2,1,-2,-1,1,-3
1481271441922627,2,-3,-5,-5,-7,-7,-3,-4
1481271441922627,-6,-3,-2,-4,0,0,-2,-5
1481271441924535,-5,1,3,1,2,2,-4,-4
1481271441924535,0,-4,-1,-4,-2,0,0,2
1481271441937535,1,4,-4,4,4,1,3,1
1481271441937535,3,3,0,6,5,5,8,-2
1481271441945555,8,5,-2,3,1,1,0,5
1481271441945555,0,1,2,-3,4,2,2,3
1481271441968604,-5,-3,5,3,4,2,-2,-1
1481271441968604,0,-2,-3,-3,-2,-3,-2,-1
1481271441969536,-1,0,-2,-7,-3,0,-4,-5
1481271441969536,-5,-9,-1,-3,2,-4,-4,-7
1481271441983696,-1,5,-1,-2,1,-1,0,-5
1481271441983696,1,-4,-4,-6,-3,-1,-4,-3
1481271441984539,0,-3,2,-5,-4,-3,-1,0
1481271441984539,-6,9,-4,1,1,-2,2,2
1481271442005617,-1,-1,0,-3,0,5,4,2
1481271442005617,4,-5,-2,-1,0,-4,-1,2
1481271442007144,-3,0,1,-2,-5,-3,-4,-6
1481271442007144,1,-1,2,0,4,-2,-6,1
1481271442044157,-1,1,-1,-5,-4,0,-4,4
1481271442044157,-4,-2,-3,-4,-2,0,-1,-5
1481271442046182,-3,-1,-3,-2,-1,-4,-1,-3
1481271442046182,3,0,-2,0,-3,-8,5,3
1481271442047159,3,-1,1,0,-2,-7,-7,-7
1481271442047159,1,0,-3,-6,-5,-11,-11,-6
1481271442051222,-1,3,-5,1,4,-1,8,4
1481271442051222,2,1,0,-3,-1,-1,0,4
1481271442057315,-3,-4,-4,-3,-4,-2,-3,-1
1481271442057315,3,1,4,2,-1,-1,2,5
1481271442073250,2,5,0,-2,-1,-2,-2,1
1481271442073250,3,3,2,-2,-4,-4,-2,-1
1481271442079316,0,-5,-3,0,4,-4,-4,-3
1481271442079316,1,5,-1,1,0,0,0,7
1481271442088197,-7,-7,-2,-6,-4,-6,-7,-6
1481271442088197,-5,-4,-3,-5,-4,-2,-7,-11
1481271442110672,2,-5,1,1,-2,0,0,-2
1481271442110672,-5,-4,-3,1,1,2,4,4
1481271442112170,-4,-7,-2,-3,-1,-3,-4,-4
1481271442112170,-2,-3,-1,-2,0,0,3,5
1481271442117205,1,5,-3,-1,0,4,8,5
1481271442117205,1,0,1,1,-1,-1,3,7
1481271442125683,-3,6,2,1,2,0,0,-4
1481271442125683,2,-4,0,-3,2,2,-6,-1
1481271442139773,-4,-5,-4,-6,-2,0,-6,-2
1481271442139773,-3,-3,-1,-1,-1,-2,-3,-9
1481271442148743,3,0,-3,-1,-5,-2,-4,-6
1481271442148743,2,4,-4,3,1,1,1,3
1481271442162680,0,-4,-5,0,-9,-5,0,1
1481271442162680,-2,0,-3,-5,-1,-1,2,-3
1481271442164680,0,-3,-3,0,4,3,4,5
1481271442164680,2,6,-6,4,0,6,5,4
1481271442176685,-2,1,-5,3,-2,-2,1,-2
1481271442176685,1,-4,-2,-6,-6,-2,1,-1
1481271442185681,2,0,-2,-3,-6,-2,-3,-3
1481271442185681,-1,-3,-1,-1,-2,-6,-4,-7
1481271442199753,-7,-3,2,-3,-2,-3,-2,-4
1481271442199753,-5,-3,-2,1,2,-1,4,-2
1481271442215694,-3,-1,-1,0,-3,2,-7,-2
1481271442215694,-4,0,-5,-2,-6,2,-7,2
1481271442223395,2,2,2,0,-6,3,-1,3
1481271442223395,0,1,0,-2,-5,-5,-4,-7
1481271442224310,0,-1,-3,6,10,0,3,-2
1481271442224310,4,-3,3,-2,-1,-2,4,-1
1481271442245310,4,5,-1,3,6,-2,1,7
1481271442245310,0,1,1,2,-2,3,-4,0
1481271442247308,2,-1,-3,0,-2,-5,-1,7
1481271442247308,0,1,-1,-1,0,0,0,0
1481271442259311,-9,-6,-1,-9,0,-3,-2,-7
1481271442259311,-2,-3,-2,-4,-4,-2,-5,-1
1481271442268308,2,1,0,-8,-5,-3,-5,1
1481271442268308,1,-2,-1,-1,-8,-5,-5,1
1481271442283310,-1,4,4,5,2,1,-1,0
1481271442283310,4,0,-1,1,1,6,5,3
1481271442284310,-1,-4,0,1,6,2,1,4
1481271442284310,-2,-1,0,-2,0,-2,-2,-5
1481271442321388,6,11,0,6,-3,2,1,4
1481271442321388,6,5,4,5,0,-1,2,0
1481271442322426,-9,1,4,-3,-3,-3,-6,-9
1481271442322426,-4,-8,3,-3,-1,3,1,-7
1481271442323425,-1,-1,3,-5,-7,-5,-3,1
1481271442323425,-7,-4,2,-12,-9,-6,-10,-4
1481271442328427,-2,1,-3,-4,2,1,1,-1
1481271442328427,1,0,-2,0,2,-3,4,5
1481271442350430,8,-1,-2,-1,0,2,5,-1
1481271442350430,1,0,1,1,-2,3,2,-1
1481271442352427,3,4,-2,3,4,5,8,6
1481271442352427,-1,-1,-1,0,-2,3,-1,5
1481271442356542,-8,-7,-3,0,0,0,-9,-11
1481271442356542,-4,0,-4,-1,3,-3,0,-4
1481271442365561,2,-2,1,-2,-8,-2,0,0
1481271442365561,-7,-4,1,-2,3,-5,-3,0
1481271442388454,-3,-3,0,-8,0,-2,-6,-3
1481271442388454,0,-2,-6,-1,-2,-1,1,5
1481271442389498,-2,-4,-4,-3,-5,-2,-1,-2
1481271442389498,-3,-3,-6,0,-1,1,-1,-7
1481271442402523,1,2,0,-2,-3,-3,4,4
1481271442402523,4,5,1,0,6,-2,3,4
1481271442417441,-5,-8,1,-3,-1,4,-1,0
1481271442417441,-2,0,0,3,1,1,1,3
1481271442418439,5,2,0,1,3,3,3,3
1481271442418439,-7,-4,0,4,-2,4,-1,-3
1481271442425689,5,-1,-6,-3,-8,9,-8,-3
1481271442425689,4,8,-7,13,3,-4,-13,-5
1481271442439809,-3,-12,-5,-5,-9,-4,-7,-5
1481271442439809,-4,-6,-2,-9,-20,-6,3,-4
1481271442455745,-3,1,-4,-1,-16,-6,9,1
1481271442455745,-1,3,14,1,-6,1,5,3
1481271442462680,0,-1,-1,3,2,-1,5,1
1481271442462680,7,5,5,6,4,8,3,2
1481271442476689,1,6,-4,-4,-2,-3,-7,-1
1481271442476689,-1,1,-12,-3,-1,1,-3,-5
1481271442485681,-7,-8,-6,4,4,1,0,0
1481271442485681,-4,-8,-3,-5,8,-5,-8,0
1481271442486678,-1,-8,4,2,4,-1,-3,-6
1481271442486678,-3,-1,7,0,2,2,-1,-3
1481271442499730,3,3,8,-5,-2,0,12,2
1481271442499730,-2,-4,1,-3,-3,1,-6,1
1481271442508211,-4,4,0,12,5,7,3,3
1481271442508211,3,-4,-2,0,-2,0,7,7
1481271442522829,0,2,-4,2,-4,3,-2,-1
1481271442522829,-2,-1,-4,0,3,-7,-4,-3
1481271442529750,-2,-2,5,2,9,0,0,0
1481271442529750,0,-5,-1,-4,0,-1,2,-3
1481271442545752,-3,6,0,-3,3,-6,-11,-3
1481271442545752,-7,3,-1,0,3,3,1,-1
1481271442546754,5,0,-2,-3,-5,-1,5,0
1481271442546754,-4,-5,-5,-7,-6,3,-2,0
1481271442559823,-2,-1,1,0,-4,-4,-5,-2
1481271442559823,7,2,1,2,-2,1,5,-4
1481271442568789,-5,-7,-2,-3,1,-8,0,3
1481271442568789,0,-1,1,-2,-1,-2,1,-7
1481271442582819,0,-2,0,2,-1,3,0,2
1481271442582819,4,0,-2,3,5,0,-3,8
1481271442589822,-1,-2,3,1,0,0,0,2
1481271442589822,1,-8,-2,-6,2,-10,-4,-4
1481271442605839,2,1,-3,3,6,-2,4,4
1481271442605839,0,-5,1,0,-3,-5,-6,-6
1481271442607833,0,-4,0,-2,-2,-4,-9,-5
1481271442607833,-1,-1,-1,-5,-10,-4,-7,0
1481271442619769,-1,-6,3,0,-5,3,5,2
1481271442619769,-2,-3,-6,-5,3,3,1,-3
1481271442628868,0,3,-4,-3,1,0,2,5
1481271442628868,9,3,2,1,0,-3,6,4
1481271442642878,3,0,-1,0,-1,1,-3,3
1481271442642878,2,2,-2,-3,-8,-2,-1,-5
1481271442648805,5,-2,0,-5,-6,-5,-3,-4
1481271442648805,-5,-2,-4,-1,1,2,-3,-2
1481271442665888,-7,-3,-2,-11,-5,-2,-3,-7
1481271442665888,-3,-5,-2,-8,-5,1,-4,-3
1481271442666874,3,-1,-2,0,4,-1,4,2
1481271442666874,-3,-5,1,-1,3,2,-2,-2
1481271442678810,3,0,2,0,2,5,-3,-2
1481271442678810,3,-2,-1,-1,2,4,7,7
1481271442687870,-1,5,0,-2,-4,1,0,0
1481271442687870,1,8,1,1,-1,-2,-8,-1
1481271442702876,0,-3,-6,-1,5,-5,0,2
1481271442702876,1,-11,-6,-2,1,-6,-6,0
1481271442709825,-3,-11,-1,-1,0,0,-4,-7
1481271442709825,-2,-4,2,0,1,6,1,-3
1481271442725866,1,1,1,-1,-8,-3,-1,-2
1481271442725866,-5,1,3,2,1,5,-1,-3
1481271442726934,-1,-6,-1,-3,2,3,0,-1
1481271442726934,-1,-6,7,-6,-17,0,0,6
1481271442739864,5,21,-5,3,-15,-4,0,0
1481271442739864,-2,-1,7,-4,3,2,-3,-4
1481271442748929,-1,-5,1,-2,2,-4,6,4
1481271442748929,-1,-10,0,-2,16,0,6,3
1481271442762914,-2,-3,-13,0,2,-3,1,-4
1481271442762914,-1,12,-6,0,10,0,2,4
1481271442768868,1,-4,3,4,7,0,-4,-1
1481271442768868,-1,-1,2,-1,2,1,-3,-10
1481271442785869,-1,-1,0,1,-1,-1,-3,-1
1481271442785869,4,2,1,5,-3,-4,-1,-1
1481271442786930,-6,-3,2,-6,-2,-2,-4,-5
1481271442786930,3,13,-5,1,-2,0,-1,2
1481271442798948,4,-2,0,-3,10,4,8,4
1481271442798948,-4,-6,0,-2,0,-2,2,3
1481271442808491,3,8,-4,1,2,2,-3,0
1481271442808491,2,4,-2,3,-2,-2,2,6
1481271442821991,-6,-15,1,0,0,-1,1,-1
1481271442821991,-7,-3,-2,-3,-5,-5,-9,-4
1481271442829059,1,3,-9,-2,-6,1,3,-3
1481271442829059,1,0,-5,-3,-3,-2,1,0
1481271442846116,-4,-5,8,-6,-1,-1,-7,-6
1481271442846116,0,7,-1,0,-3,4,3,-3
1481271442847053,4,0,1,3,-5,-3,3,6
1481271442847053,0,-7,-2,0,-1,2,1,3
1481271442859035,0,-1,1,-2,2,2,-6,-1
1481271442859035,6,1,2,-3,-1,1,5,5
1481271442868067,-6,-2,0,-1,3,0,-2,5
1481271442868067,-8,1,-2,1,-10,-2,-4,-5
1481271442882033,0,-5,-6,0,-1,1,0,0
1481271442882033,-5,-9,-2,-5,-6,1,0,3
1481271442889034,-10,-4,-4,-2,7,2,5,-4
1481271442889034,1,-4,-6,-4,6,-2,-4,-5
1481271442906099,2,0,-1,-2,0,-3,4,5
1481271442906099,0,-7,0,-4,0,-7,0,-3
1481271442907545,-2,8,2,-7,-9,-3,-5,-5
1481271442907545,3,1,0,-4,-6,0,0,-3
1481271442919550,-2,0,5,0,0,-2,3,-5
1481271442919550,0,1,-2,7,5,2,-2,0
1481271442928556,4,0,10,2,-2,0,2,-2
1481271442928556,2,-3,-9,-4,-1,-2,0,-1
1481271442941556,-3,-2,-6,-1,2,-1,-2,-1
1481271442941556,0,-4,5,-3,-5,-2,-1,-2
1481271442950557,6,-5,-6,-2,-6,-1,-3,-5
1481271442950557,-8,1,-6,-2,1,3,-2,1
1481271442965639,-4,1,1,-4,-1,-3,-4,-4
1481271442965639,1,1,-6,-1,3,-2,2,2
1481271442967560,2,1,-8,3,0,-1,0,7
1481271442967560,1,-2,1,6,4,2,1,-2
1481271442979562,2,1,5,1,-2,0,4,5
1481271442979562,-1,-2,-8,-3,-1,-3,-1,-2
1481271442988564,0,-6,-4,-5,-7,-2,-2,-3
1481271442988564,-4,-1,4,1,-1,-5,-6,-8
1481271443002583,-1,-7,-4,-5,-3,-6,-8,-4
1481271443002583,-1,-5,0,-1,-3,-3,-1,-7
1481271443009722,-7,-5,0,-2,-5,-2,-3,-1
1481271443009722,-1,-3,0,-4,-7,-5,-2,5
1481271443025305,1,-1,-3,-2,1,-1,0,3
1481271443025305,0,-1,-3,-2,-5,0,2,-1
1481271443032265,-4,0,1,3,2,-1,3,-2
1481271443032265,2,-2,0,-5,-7,4,0,1
1481271443039279,-5,1,-1,-2,-1,8,0,-4
1481271443039279,-1,1,0,4,0,-1,-3,-1
1481271443048268,-3,-1,3,-2,-3,0,3,5
1481271443048268,-5,-2,0,-3,0,-2,-3,-3
1481271443062202,-3,-6,-1,-1,-2,-8,-7,-3
1481271443062202,-3,-4,-5,-4,-1,0,0,3
1481271443069198,-3,0,-4,1,4,2,-6,-2
1481271443069198,0,2,-1,2,4,1,-1,3
1481271443085202,-2,-1,-3,0,-2,1,5,4
1481271443085202,-2,-1,-3,0,0,2,4,0
1481271443087200,-3,-2,2,-2,-2,2,-5,-4
1481271443087200,-2,0,2,3,5,3,0,-1
1481271443099268,4,6,2,0,-1,4,-1,-1
1481271443099268,-3,-5,0,-2,-8,-2,2,-3
1481271443108304,2,-2,1,-5,-5,0,-6,0
1481271443108304,3,3,-6,0,0,-1,3,1
1481271443122755,5,1,0,-3,-1,-1,3,0
1481271443122755,-4,5,1,-7,-1,-2,-9,-8
1481271443128751,-2,-3,-2,-2,-2,-5,0,-2
1481271443128751,4,-17,-5,0,19,-3,5,3
1481271443145756,-5,2,1,5,-2,0,1,-1
1481271443145756,0,-6,1,5,-9,-2,3,2
1481271443146753,2,5,-7,-2,-9,0,11,7
1481271443146753,3,13,2,-3,0,4,0,4
1481271443159792,-5,-1,-1,-4,4,-4,-2,-3
1481271443159792,6,16,0,3,-1,-6,0,4
1481271443167755,1,-8,2,0,5,0,-5,-7
1481271443167755,-7,-8,0,-6,-4,-1,-9,-12
1481271443181753,-2,-3,1,-6,3,-1,-4,-5
1481271443181753,-1,-6,-1,2,1,-3,-1,4
1481271443190752,0,-7,-3,1,2,-3,-2,-3
1481271443190752,-1,-2,1,1,-4,-3,0,1
1481271443205752,4,4,-4,6,0,1,-1,5
1481271443205752,7,0,-10,5,5,5,2,4
1481271443207307,-4,3,-1,-5,4,-2,-5,-1
1481271443207307,-3,8,0,1,-8,0,-1,0
1481271443219765,2,-6,-4,-4,-4,2,-5,1
1481271443219765,-6,-7,3,0,10,-2,-5,-6
1481271443227773,-1,-1,-2,0,-2,3,-4,-3
1481271443227773,2,-5,7,0,2,-3,11,0
1481271443241778,2,-1,3,-3,-5,-3,2,-5
1481271443241778,-1,0,-5,6,2,-1,7,-4
1481271443250775,1,-2,0,-1,-5,-1,5,1
1481271443250775,2,18,6,1,-4,-3,1,0
1481271443264843,-7,-12,-11,1,-2,0,-1,-1
1481271443264843,0,-2,-1,-4,-5,4,-4,0
1481271443271776,0,-5,5,3,9,2,8,5
1481271443271776,-9,-21,-15,1,-5,-1,-4,-1
1481271443278779,1,10,-6,1,-4,-4,5,-3
1481271443278779,-1,-1,3,-2,-6,-5,-4,-1
1481271443287880,-6,1,2,-2,-2,-6,-5,-6
1481271443287880,-5,-2,-10,-8,-1,1,-6,-4
1481271443301780,0,-4,0,-2,3,-5,0,3
1481271443301780,-4,-2,7,-3,-6,-1,-7,-1
1481271443310789,2,4,-6,0,-1,1,-5,-3
1481271443310789,-3,-3,-7,4,-2,-3,0,5
1481271443324822,-2,-4,-2,-1,0,8,0,-1
1481271443324822,-2,1,-3,1,-1,-1,2,-1
1481271443331804,1,3,-4,4,-1,2,5,6
1481271443331804,3,-3,3,-8,-11,-2,2,-1
1481271443339836,-10,-4,0,-8,0,2,-8,-7
1481271443339836,-7,0,-6,-6,-4,-5,2,-1
1481271443347803,-2,0,-1,-3,-9,0,-2,-1
1481271443347803,-3,-6,1,-1,0,-1,-5,-6
1481271443361801,0,0,-4,3,0,1,0,-1
1481271443361801,5,-3,3,5,-3,3,3,5
1481271443370805,-1,-8,3,-2,-7,-4,-2,1
1481271443370805,0,2,-1,-1,1,-4,1,-3
1481271443384807,2,3,7,1,-1,1,5,4
1481271443384807,-3,-4,-3,-3,-5,-2,-2,1
1481271443391809,-4,2,-3,-5,4,-2,-3,-8
1481271443391809,3,2,-2,-1,-4,0,0,-6
1481271443408323,1,-6,0,-3,-7,-2,2,0
1481271443408323,-5,-2,3,-10,0,-4,-2,-9
1481271443409822,-2,1,-3,-2,0,-1,-8,3
1481271443409822,5,0,3,5,10,5,2,4
1481271443422327,1,-5,2,-2,-3,-3,-6,4
1481271443422327,4,-2,0,0,1,-3,-2,0
1481271443430837,8,2,5,2,-1,1,5,2
1481271443430837,-3,-2,5,2,3,2,1,6
1481271443444836,-5,-5,-5,1,4,1,-2,2
1481271443444836,0,-6,-2,2,1,-3,1,0
1481271443451838,0,5,5,2,-2,0,9,2
1481271443451838,-6,-1,-1,0,0,-1,0,1
1481271443467841,-2,-1,3,-2,-5,-5,1,-9
1481271443467841,-3,2,-2,-10,-3,5,0,4
1481271443469875,2,-1,-6,-1,4,0,1,-3
1481271443469875,-1,-2,-2,-4,-5,-3,-2,0
1481271443481916,5,2,1,3,6,-2,5,0
1481271443481916,2,1,3,-3,1,6,4,1
1481271443490841,-1,-3,0,3,6,0,-1,1
1481271443490841,3,2,4,-3,4,1,5,7
1481271443504840,2,2,0,2,-3,-3,1,1
1481271443504840,1,-4,-4,0,-4,1,1,-1
1481271443511852,-5,-3,4,-2,-2,-5,-2,-2
1481271443511852,-5,-6,-5,-4,-3,-8,-3,-7
1481271443528387,-1,-2,-6,-5,-2,-1,-3,-6
1481271443528387,-2,3,5,0,1,6,-2,-11
1481271443529391,-2,-1,1,-3,-1,-2,-1,2
1481271443529391,1,0,-8,-5,-1,7,0,3
1481271443542427,-1,2,-2,1,4,11,0,2
1481271443542427,1,0,2,-1,4,3,4,3
1481271443550492,1,-9,-5,1,1,5,0,0
1481271443550492,4,1,2,4,5,-3,1,-1
1481271443565491,-5,-4,2,-1,3,5,4,-1
1481271443565491,-1,-5,-3,-2,-3,-6,0,0
1481271443571471,-2,-5,-8,-3,-2,4,2,-3
1481271443571471,-1,3,5,5,1,2,-2,-4
1481271443588487,-3,-1,2,-3,-1,-4,-2,-2
1481271443588487,1,-3,-8,-3,4,-5,-1,0
1481271443589426,-2,1,-2,-3,-6,-4,0,-3
1481271443589426,0,0,-1,1,-5,4,3,0
1481271443602489,3,-2,-7,-2,-2,-3,3,5
1481271443602489,1,-5,-2,3,-2,1,2,-5
1481271443610909,-5,2,-1,-2,8,-1,0,-2
1481271443610909,3,-3,-2,-5,0,-8,3,-2
1481271443633560,1,-1,-3,-2,-5,-3,-2,0
1481271443633560,-2,-3,2,-5,2,1,-9,-7
1481271443634495,0,-3,5,-1,1,2,-1,-3
1481271443634495,-3,-6,-4,-3,-6,2,0,0
1481271443648598,1,4,4,0,0,1,-8,-1
1481271443648598,-1,-1,-2,-3,-3,-3,-4,-4
1481271443649506,6,3,-4,-6,-7,1,-1,1
1481271443649506,3,-1,1,0,-1,-4,-2,-4
1481271443670574,-4,-2,-4,0,-1,-6,-4,-6
1481271443670574,1,-1,-7,4,1,-1,5,6
1481271443672495,7,-3,-6,3,-4,1,6,6
1481271443672495,-1,2,-2,-2,-6,0,-7,-7
1481271443685572,4,3,-3,-3,-5,-4,-3,1
1481271443685572,3,-1,2,-6,-2,-4,0,2
1481271443709098,-6,0,-3,-2,2,-2,-9,-7
1481271443709098,-7,-5,2,-2,1,-9,-4,-9
1481271443710140,-2,-6,1,-5,-1,-3,5,2
1481271443710140,-2,0,-1,0,-3,-9,2,-3
1481271443711634,-2,-6,-1,-3,-2,-2,-1,-3
1481271443711634,5,-2,1,3,1,2,-1,2
1481271443722094,4,-3,4,3,0,5,7,4
1481271443722094,0,-3,-1,2,-7,-1,-2,0
1481271443738169,4,-1,1,1,-4,0,0,4
1481271443738169,0,0,-3,2,5,1,1,-1
1481271443745102,-2,0,-4,0,0,-2,-2,-6
1481271443745102,-3,1,3,-2,-4,0,-6,-6
1481271443752171,0,-1,-2,-2,-2,-3,4,0
1481271443752171,1,4,0,-3,1,-1,1,2
1481271443776175,3,0,-3,-2,-6,1,-3,0
1481271443776175,-3,-5,-4,2,0,2,-1,6
1481271443777127,2,0,0,1,-3,1,1,1
1481271443777127,-1,1,1,-2,-2,1,3,1
1481271443781163,-1,1,1,2,-1,1,0,-1
1481271443781163,-2,4,0,1,0,-1,1,-1
1481271443791108,-5,-1,-2,5,8,2,5,-1
1481271443791108,2,-5,-5,-5,1,1,0,8
1481271443805183,1,1,1,0,4,-4,2,-3
1481271443805183,-3,-1,-2,3,1,3,-7,-8
1481271443812181,0,-4,-2,-5,1,-3,-4,2
1481271443812181,-3,-1,-5,2,0,0,-1,3
1481271443828819,-3,-2,-1,-3,2,-3,-3,-2
1481271443828819,1,-4,-2,-3,3,1,0,1
1481271443829815,4,-4,-5,-5,-6,-1,1,6
1481271443829815,-4,1,-1,-2,-3,6,0,-1
1481271443841913,0,0,-1,0,1,4,-2,4
1481271443841913,-1,5,-1,3,5,-2,2,11
1481271443850816,2,-1,7,-3,1,-4,-2,-5
1481271443850816,-5,3,5,-4,-5,-2,-3,-9
1481271443864885,0,1,2,1,-2,-3,-4,-1
1481271443864885,4,0,4,-3,-2,0,0,-1
1481271443879840,-4,-2,-6,-2,3,1,-2,-7
1481271443879840,2,-3,-3,2,3,-3,-2,-2
1481271443887898,3,-3,0,3,2,3,7,8
1481271443887898,3,-3,-1,3,2,0,6,2
1481271443889819,-3,-1,4,6,0,-3,4,4
1481271443889819,1,-2,-4,1,0,4,4,5
1481271443910917,0,-3,-2,1,7,0,-4,1
1481271443910917,-4,0,0,2,3,-2,-1,-5
1481271443912411,-1,1,-2,0,-2,-1,-6,-3
1481271443912411,2,-2,3,-1,1,-1,0,3
1481271443925220,-1,0,-2,-7,-5,-2,-4,-8
1481271443925220,1,-4,-6,-1,-2,1,-4,-3
1481271443932200,7,5,-1,-3,-4,-1,-2,1
1481271443932200,2,1,1,0,-6,0,0,1
1481271443948211,-5,-2,0,0,2,0,4,-1
1481271443948211,6,3,0,-1,-2,2,3,2
1481271443950132,-2,-5,-2,1,3,0,1,2
1481271443950132,-1,1,1,2,-1,1,-3,-4
1481271443962200,-4,3,-2,-5,-2,-2,1,-1
1481271443962200,-2,-1,1,1,-3,1,2,-2
1481271443986154,-4,3,0,-3,0,-4,4,0
1481271443986154,-9,1,-3,-1,1,-4,-5,1
1481271443986154,2,-1,-2,-3,-1,3,-1,6
1481271443986154,-2,1,-2,-5,3,0,-1,4
1481271443992202,-3,4,-1,-4,-2,-2,-4,-4
1481271443992202,5,1,-4,-2,-6,-2,4,0
1481271444015721,-1,-4,-2,5,-1,-1,3,2
1481271444015721,-4,1,1,0,-3,-3,-1,4
1481271444017219,-1,-2,0,1,-4,4,-1,1
1481271444017219,5,3,0,-2,3,2,-7,0
1481271444022311,0,0,-1,2,-1,-4,-1,0
1481271444022311,-3,-2,-4,0,-2,-6,-4,-5
1481271444030728,-1,-5,-3,0,-5,-3,3,2
1481271444030728,-3,-3,4,-2,-3,-2,-5,-5
1481271444052811,-2,-6,-1,2,-5,0,-6,-7
1481271444052811,2,1,-1,3,-1,-2,0,-3
1481271444054730,1,-6,0,-3,-1,0,-6,-2
1481271444054730,-4,-1,-1,5,3,1,1,3
1481271444067832,4,0,-4,4,4,-1,4,1
1481271444067832,-1,1,-3,2,-6,-2,2,-1
1481271444069731,-3,1,0,-5,-1,-1,-6,3
1481271444069731,-6,2,-2,0,-4,0,3,-2
1481271444082835,-5,-1,3,-8,-7,-3,-3,-6
1481271444082835,-5,-2,-2,-5,-7,-1,-5,-6
1481271444090734,4,6,-4,4,-5,-1,-3,-4
1481271444090734,3,-7,1,-5,-5,-3,-6,5
1481271444104842,-3,0,-1,-3,-8,-2,-5,-1
1481271444104842,4,-3,0,1,2,4,-3,2
1481271444119788,2,-2,-3,0,-5,-3,3,2
1481271444119788,5,0,-4,-3,-3,0,0,0
1481271444128622,2,-2,-1,0,-4,-1,-1,-3
1481271444128622,2,0,1,0,4,-5,-5,-3
1481271444129587,2,-3,0,5,1,-1,4,2
1481271444129587,-4,1,-2,-1,6,-1,-3,3
1481271444141674,-4,0,-3,-2,5,0,-3,-2
1481271444141674,5,-1,-4,-6,-4,1,3,7
1481271444158585,-2,0,-4,-2,0,2,-3,0
1481271444158585,-3,2,3,-3,-3,-6,0,-6
1481271444164664,1,2,3,-1,-5,-3,-2,-4
1481271444164664,-2,-3,4,-3,-1,2,6,2
1481271444171587,-3,-3,0,0,3,1,-1,-6
1481271444171587,2,1,-2,-1,2,-1,2,-2
1481271444188668,0,-6,-2,-7,-2,0,5,7
1481271444188668,1,0,-1,3,0,-4,5,2
1481271444190622,-6,0,2,-1,6,5,-2,-2
1481271444190622,1,4,4,3,6,1,0,-1
1481271444201588,-1,2,-3,0,-1,-3,-2,0
1481271444201588,1,-1,-3,-3,6,3,-6,-7
1481271444211096,-2,-6,-2,-7,0,2,1,-5
1481271444211096,1,-2,0,0,-4,0,-4,1
1481271444225110,-2,-2,-5,1,0,-1,-1,-1
1481271444225110,-1,2,-3,-2,-1,-1,1,-5
1481271444232173,3,7,-1,-1,-4,-2,3,4
1481271444232173,0,0,2,0,5,3,3,1
1481271444264184,-1,0,0,-3,-2,-3,-4,-6
1481271444264184,2,-2,-1,1,3,2,-2,2
1481271444265131,-2,1,0,3,0,0,1,-3
1481271444265131,-8,-4,-5,-1,-2,0,1,-6
1481271444266109,-8,5,-3,-3,0,-5,-4,-3
1481271444266109,-2,-3,-4,0,0,-6,-1,0
1481271444271112,2,1,-1,0,-1,-5,-4,-2
1481271444271112,-2,-8,-2,1,0,-2,4,5
1481271444293110,-4,-1,-1,0,3,0,2,3
1481271444293110,2,1,4,-2,0,6,4,2
1481271444294110,-5,1,6,1,0,-2,7,-3
1481271444294110,-2,-6,-8,-1,6,2,1,4
1481271444307179,-1,-3,4,4,6,3,2,0
1481271444307179,-4,-2,-1,-6,-2,1,-5,-7
1481271444314693,-2,-3,0,2,5,2,4,3
1481271444314693,1,-2,1,-1,-4,-1,5,-1
1481271444330702,2,-3,1,1,-1,-2,0,1
1481271444330702,-2,2,-3,-2,-3,-4,-4,1
1481271444332702,4,1,-1,0,4,3,-2,2
1481271444332702,0,-4,2,-4,-4,-7,-4,-1
1481271444344706,1,-2,0,-1,-3,-1,0,-3
1481271444344706,0,0,1,-2,-5,-4,4,4
1481271444359769,3,-5,1,0,5,2,-3,2
1481271444359769,-5,5,-4,2,1,2,-6,-4
1481271444367705,2,5,1,-2,4,-3,4,4
1481271444367705,-2,-4,1,-2,-6,-2,3,2
1481271444374772,-2,1,2,-3,-3,-6,0,-5
1481271444374772,-4,3,1,-4,-3,-3,1,-7
1481271444397773,-3,-1,-3,-7,-4,3,0,-2
1481271444397773,-3,0,-2,-6,-7,-2,-4,-6
1481271444399711,-2,-4,0,2,-6,-1,-2,-5
1481271444399711,0,-2,0,3,1,0,6,7
1481271444404710,8,0,-2,1,-1,1,1,6
1481271444404710,-8,-4,1,0,2,0,3,-2
1481271444419763,0,-2,-4,1,4,0,4,7
1481271444419763,4,2,-4,-1,-3,-7,-4,-2
1481271444435308,-6,-2,-3,-2,-6,-2,-9,-12
1481271444435308,3,1,-2,4,2,-2,-3,1
1481271444437309,1,6,-2,-4,-2,-5,-2,7
1481271444437309,-3,0,-2,-2,-6,-4,-10,-9
1481271444450309,-3,-2,4,4,3,0,-2,-2
1481271444450309,0,-3,0,0,-4,-2,4,4
1481271444452308,-2,-4,-4,-2,-5,0,2,0
1481271444452308,1,0,1,5,4,-2,0,-1
1481271444465309,2,3,-3,1,-1,-3,6,8
1481271444465309,3,-1,3,3,-3,3,-4,2
1481271444472279,-7,-5,0,-2,-2,3,-5,-11
1481271444472279,-3,-7,2,-6,-4,0,1,-3
1481271444487376,3,1,-2,-2,-2,0,2,-3
1481271444487376,-5,2,0,-4,0,-4,-2,-5
1481271444502279,-3,-1,0,-2,-2,-5,-3,0
1481271444502279,2,-5,-1,-2,-3,-2,-4,4
1481271444510820,-4,-5,-4,0,-2,0,0,0
1481271444510820,-5,-1,-3,1,-8,1,-2,-5
1481271444512321,0,-1,-4,4,0,-1,0,0
1481271444512321,3,-1,-3,-4,4,4,3,-3
1481271444540339,-2,-2,4,-2,3,-5,-4,1
1481271444540339,-2,-3,-5,1,4,6,4,1
1481271444542331,-4,-3,0,2,6,0,7,0
1481271444542331,-2,3,2,0,3,-1,-1,-3
1481271444547357,-2,2,-3,1,-4,-2,-5,-7
1481271444547357,5,-3,1,-4,-6,0,-2,2
1481271444554335,1,2,-1,-7,-1,-2,-8,-4
1481271444554335,-3,0,-2,-1,0,1,-1,2
1481271444571337,7,-7,-6,-6,-4,-1,-3,0
1481271444571337,1,3,-2,1,3,-3,0,-3
1481271444572338,-1,2,2,-4,-1,1,2,3
1481271444572338,0,1,-1,3,2,1,4,3
1481271444585334,3,1,-2,0,4,1,9,-1
1481271444585334,-5,-5,-5,-3,-4,-2,0,1
1481271444591403,-1,0,-2,2,2,-3,-5,-5
1481271444591403,-2,1,1,-2,-4,-4,-5,3
1481271444607403,-6,4,5,1,-9,2,-3,-4
1481271444607403,-2,-1,4,-8,-4,-4,-3,-5
1481271444614347,0,-7,3,-6,-2,-4,-4,2
1481271444614347,6,-3,0,12,7,-2,2,-5
1481271444638424,-2,-10,0,-13,9,2,2,-2
1481271444638424,5,5,4,-1,11,3,2,-3
1481271444639363,1,3,-8,0,-10,-2,1,3
1481271444639363,-4,-8,-1,4,-7,0,1,-4
1481271444644359,0,1,4,7,-11,2,0,4
1481271444644359,1,-4,4,2,-3,2,-1,0
1481271444653357,3,6,1,1,-7,-1,-1,2
1481271444653357,-7,-2,-3,-6,-2,3,-5,2
1481271444675360,-1,-4,-4,0,10,-1,-2,-2
1481271444675360,-4,-5,-6,-4,7,-6,-2,0
1481271444677360,-5,-1,2,-1,3,-3,-5,-9
1481271444677360,0,-5,-4,-9,-9,-5,1,0
1481271444690363,-2,-4,-1,2,-1,-2,2,1
1481271444690363,-2,-4,-6,0,-7,-1,4,1
1481271444692360,3,-8,0,-1,-6,0,6,-1
1481271444692360,2,4,1,-5,-1,-1,6,4
1481271444713447,-2,-1,2,-2,5,1,-1,5
1481271444713447,-2,4,-3,-5,-4,-1,-3,-10
1481271444714944,3,0,4,0,5,0,1,4
1481271444714944,2,-1,2,-8,1,-1,-1,-3
1481271444727452,-5,1,0,-3,-7,-5,-4,-7
1481271444727452,-4,-1,2,3,2,2,-1,-4
1481271444741521,1,1,-2,0,-7,0,2,-1
1481271444741521,-3,-4,-2,-2,-6,-4,-9,-3
1481271444750463,-1,-2,1,-3,3,-1,5,0
1481271444750463,5,2,1,2,2,2,-3,2
1481271444752453,1,1,-8,0,-1,0,4,4
1481271444752453,-3,-1,-2,1,2,2,-4,-7
1481271444764462,2,0,-1,3,1,-12,2,4
1481271444764462,-3,-3,-2,-4,-5,2,0,0
1481271444780524,-4,-3,3,-2,0,-1,-4,-7
1481271444780524,-2,-2,3,-3,-7,2,-8,-6
1481271444787459,1,1,0,-1,-5,0,-2,1
1481271444787459,1,-9,-2,-1,-2,-7,-2,1
1481271444818967,2,-1,0,2,8,2,0,3
1481271444818967,7,0,-7,0,-6,6,3,5
1481271444819467,-1,-4,2,0,-7,1,4,6
1481271444819467,-2,0,3,-1,1,0,-3,-3
1481271444821468,-5,-7,-3,-3,-3,-3,-2,3
1481271444821468,-3,-3,-2,2,1,-6,-1,2
1481271444824468,-1,-5,1,1,0,0,-9,-7
1481271444824468,-4,0,-3,2,-4,-4,-4,-1
1481271444833479,-1,0,2,-1,-7,-1,2,-2
1481271444833479,-3,2,0,0,-1,-7,-2,-2
1481271444847486,-3,-2,-3,1,1,-2,0,0
1481271444847486,2,3,-1,0,0,-5,5,5
1481271444854479,2,1,-6,0,1,4,-2,-3
1481271444854479,-8,0,-1,0,3,-3,1,-5
1481271444870480,4,4,-5,2,-5,2,3,3
1481271444870480,-3,1,-2,-1,-3,-3,-1,6
1481271444872480,-2,1,1,2,1,0,1,-4
1481271444872480,2,0,1,3,5,-2,2,0
1481271444884605,0,2,-2,-6,-10,-4,0,-5
1481271444884605,2,4,3,1,4,-4,-2,-5
1481271444893485,-2,-2,2,-3,-10,-4,-5,-4
1481271444893485,-1,-3,-2,-6,-5,0,-2,1
1481271444908482,-2,-3,0,-5,-7,-3,-8,-8
1481271444908482,-3,-6,0,-2,-6,1,1,2
1481271444915993,-4,-3,-1,0,4,2,1,0
1481271444915993,1,-1,-1,0,-2,-3,8,0
1481271444930252,-4,3,-3,1,6,2,2,-3
1481271444930252,1,8,0,0,3,2,9,5
1481271444932252,-3,2,8,-2,-2,-6,-1,2
1481271444932252,-2,-1,1,-3,3,0,-6,-2
1481271444953308,-2,-6,-3,-1,2,3,-5,-6
1481271444953308,-2,-7,-10,-6,2,0,0,-5
1481271444954257,-4,-9,5,-2,-6,0,-3,-7
1481271444954257,-4,5,6,-5,-5,-4,-5,-5
1481271444967259,2,-6,-2,0,1,-2,5,6
1481271444967259,-1,-1,3,5,1,-5,1,2
1481271444974320,4,-1,-5,0,-1,-3,-1,-2
1481271444974320,4,-3,-6,5,-3,3,7,9
1481271444990340,0,1,2,2,1,-1,-2,-1
1481271444990340,-10,-4,2,-8,-3,1,-2,-8
1481271444992292,-1,-3,-8,-2,-2,0,-2,1
1481271444992292,-2,-4,0,0,-6,-3,2,1
1481271445004279,-6,-4,-2,-4,1,-3,-2,-4
1481271445004279,-1,-6,-4,4,5,-6,-6,-2
1481271445020799,-2,3,-7,4,0,-3,3,3
1481271445020799,-3,1,1,-3,6,2,-2,-2
1481271445027348,-5,1,-1,-4,-4,-3,-2,-4
1481271445027348,6,3,2,0,-2,9,2,3
1481271445034350,-2,-5,3,-1,-1,-3,4,1
1481271445034350,-1,1,0,-1,2,0,3,-2
1481271445058354,3,4,1,8,0,0,4,5
1481271445058354,-1,-3,0,0,6,3,3,3
1481271445059350,-4,0,1,0,3,5,-5,-4
1481271445059350,-2,4,0,-2,2,-3,-6,-4
1481271445064354,-1,-7,-1,-5,6,-1,-2,-1
1481271445064354,-2,2,1,0,0,-2,-6,-9
1481271445097384,-3,-3,2,1,3,-1,-6,0
1481271445097384,5,-2,-6,4,-4,-2,2,5
1481271445098354,1,-2,-1,1,-8,-3,2,-3
1481271445098354,3,0,2,1,0,2,-4,0
1481271445101353,1,2,1,-1,0,0,-4,-2
1481271445101353,-2,-2,2,-1,0,-4,0,-2
1481271445110875,-3,2,-2,-4,-3,-3,-7,-4
1481271445110875,-2,-1,-4,0,-5,-2,-5,-1
1481271445112372,1,-4,-6,-6,1,1,0,4
1481271445112372,-3,-8,3,-1,1,2,-5,-5
1481271445124377,-1,0,0,3,-2,0,-3,1
1481271445124377,1,-6,-3,0,-1,0,4,4
1481271445133467,2,0,1,1,5,-2,0,0
1481271445133467,-2,0,-5,0,2,1,3,0
1481271445147468,-1,-1,0,-2,3,3,4,2
1481271445147468,-4,0,2,1,2,0,-2,1
1481271445161470,-2,3,-3,1,5,2,0,-6
1481271445161470,-2,-2,0,0,-1,1,0,-2
1481271445170556,1,-4,1,-2,-4,-1,2,4
1481271445170556,-2,-3,-4,-4,-5,-2,-6,-6
1481271445176468,3,1,0,-2,-6,1,-2,1
1481271445176468,1,2,5,4,-3,-2,-1,2
1481271445193470,-3,0,1,-4,-5,-5,0,-6
1481271445193470,-3,-3,-1,-1,-2,-4,0,-3
1481271445194469,7,-7,0,1,-4,-1,1,3
1481271445194469,-4,-1,-4,-2,-4,-2,0,-3
1481271445207469,-9,4,-4,1,1,2,-2,-5
1481271445207469,-3,0,-4,-3,-1,4,5,2
1481271445214482,-1,0,4,2,7,5,0,2
1481271445214482,-6,1,-4,2,2,-4,-6,-4
1481271445229910,1,-1,-2,2,2,6,-1,1
1481271445229910,3,2,5,-1,-4,2,4,1
1481271445236963,-4,-6,-2,-6,-5,-7,-5,-8
1481271445236963,-2,-6,-3,-5,-5,-3,-8,-7
1481271445243898,4,0,3,2,2,-1,-1,5
1481271445243898,1,2,-1,2,4,-3,0,-3
1481271445252956,-8,0,-3,-6,-4,-11,-2,-7
1481271445252956,4,6,2,2,2,-1,5,6
1481271445267931,-1,-10,-1,-6,-3,0,0,1
1481271445267931,-6,-2,-1,-2,1,-1,-2,1
1481271445273898,-4,3,-4,-2,-6,1,-4,-6
1481271445273898,1,-3,0,-5,-3,1,5,5
1481271445297903,-1,-1,1,-1,3,-4,-2,-9
1481271445297903,-1,1,-3,-4,-5,-7,-4,-7
1481271445299896,2,-2,1,-1,4,1,2,5
1481271445299896,-3,-7,-3,-4,-3,2,1,-3
1481271445313418,-3,4,-1,-5,-1,4,-2,-6
1481271445313418,0,2,3,-3,-4,2,4,6
1481271445314914,-1,3,-3,-2,-1,-3,0,0
1481271445314914,-4,0,-3,-2,-4,-2,-2,-3
1481271445335548,2,-4,-4,0,-6,-3,1,-1
1481271445335548,2,4,1,1,-3,-3,6,0
1481271445337470,-4,-2,2,-5,-2,3,0,-7
1481271445337470,-1,1,-1,-2,-1,-4,-3,-2
1481271445349474,2,0,3,-1,-5,1,4,0
1481271445349474,5,-9,-6,0,-3,-1,-4,-6
1481271445375478,-7,-2,-5,0,-2,6,2,2
1481271445375478,0,-2,3,-1,6,2,2,-3
1481271445376535,-1,4,-5,-8,-4,-1,-4,5
1481271445376535,-1,1,2,-3,-5,-4,-6,-6
1481271445379475,-1,2,-1,-1,-1,-4,1,4
1481271445379475,5,2,-1,-2,-5,-3,-3,2
1481271445387550,-5,-7,-6,-5,3,-3,-7,-6
1481271445387550,-6,-6,-3,-4,1,3,0,-4
1481271445401516,6,0,0,2,-1,-1,4,2
1481271445401516,-4,1,-3,-6,-7,-3,2,-4
1481271445410605,-3,5,5,1,-3,-5,-1,-4
1481271445410605,5,6,3,1,2,-1,3,7
1481271445417045,2,1,0,0,1,-2,1,1
1481271445417045,-1,-2,1,4,2,-6,-4,-9
1481271445440896,-1,2,0,6,0,0,1,4
1481271445440896,3,-3,-2,-5,-5,-2,-2,3
1481271445441881,-5,-3,3,1,-1,-2,-8,-2
1481271445441881,-3,1,-1,0,3,3,0,4
1481271445447821,1,-4,3,-2,1,-1,-1,7
1481271445447821,-2,1,0,0,-2,-1,-4,-4
1481271445453821,3,-4,2,-1,-3,-5,-4,-10
1481271445453821,5,-3,0,0,-3,5,3,2
1481271445469897,1,-1,-1,1,-4,0,-1,-4
1481271445469897,-5,-4,-2,-2,-4,2,-6,-10
1481271445476821,5,7,2,0,1,-1,1,2
1481271445476821,8,7,-1,-2,3,-2,0,-3
1481271445492828,-5,-1,-5,-3,-5,-4,-3,-7
1481271445492828,0,-4,2,-10,3,-2,-2,-1
1481271445494819,3,-7,-3,-3,2,3,5,2
1481271445494819,-4,-1,3,-1,1,-1,0,-2
1481271445507952,3,1,0,-5,-5,-3,-3,3
1481271445507952,0,1,1,1,-6,-6,1,1
1481271445514891,-1,-3,-6,-5,-8,-1,-2,-2
1481271445514891,0,-7,-6,-3,-3,-2,-4,-2
1481271445530085,1,0,2,1,7,-1,0,0
1481271445530085,-2,1,-2,3,-5,2,-1,0
1481271445544089,-9,0,-3,-1,-6,-7,-1,-7
1481271445544089,1,-4,1,6,-1,1,-2,-2
1481271445553089,3,-4,2,-2,1,-2,-2,0
1481271445553089,-1,-4,-3,-3,5,-3,-1,3
1481271445555087,-5,-3,-2,-3,-3,-1,-7,-4
1481271445555087,2,0,1,-6,-6,-6,1,-1
1481271445576142,-11,-3,-6,-1,-3,-3,-4,-1
1481271445576142,-6,1,-2,-2,-3,-2,-4,-4
1481271445577153,3,-3,-2,-1,2,1,-1,1
1481271445577153,-6,0,2,-4,-6,-4,-2,4
1481271445590089,1,6,0,1,-3,-3,-8,-3
1481271445590089,0,1,-1,1,3,-1,-1,2
1481271445597093,0,-2,-3,6,-1,1,2,5
1481271445597093,-5,-5,-4,-2,-1,-1,-4,-3
1481271445613638,-1,2,-1,1,0,5,1,-9
1481271445613638,2,-1,-2,1,1,0,8,1
1481271445615103,-3,-2,-6,-1,-2,-1,2,0
1481271445615103,-4,0,3,-4,-7,-5,0,2
1481271445652172,-1,-7,-5,-3,0,0,5,0
1481271445652172,-1,-1,1,5,4,-2,-3,0
1481271445653232,-7,-3,0,3,2,1,1,-4
1481271445653232,3,4,1,2,3,1,2,0
1481271445654169,3,4,5,0,-2,-3,-1,4
1481271445654169,-1,-1,-4,-7,-3,2,-4,0
1481271445658169,3,4,3,-2,1,-2,1,-3
1481271445658169,-2,-7,-3,-5,-6,5,-2,0
1481271445681212,2,-2,-1,1,-1,-8,3,-1
1481271445681212,3,-4,1,4,-2,-3,-1,-6
1481271445682172,2,2,1,-2,3,-1,1,5
1481271445682172,2,6,-5,0,6,7,-1,3
1481271445687271,-3,2,-6,-3,4,3,0,-3
1481271445687271,1,0,1,-1,-2,-4,-2,-3
1481271445696235,2,3,2,-6,-3,-4,-2,5
1481271445696235,-3,0,2,5,6,-1,-1,-3
1481271445718182,1,-10,-6,1,-2,10,-5,5
1481271445718182,-5,-6,0,-1,-5,-3,4,2
1481271445719680,0,7,0,-3,-3,-4,-6,-4
1481271445719680,-6,3,-3,-4,1,-8,-2,-5
1481271445733694,0,8,4,-2,-3,-2,-1,-1
1481271445733694,0,2,-1,-5,-7,2,-2,-1
1481271445734689,2,-1,-1,4,-9,2,-5,-4
1481271445734689,0,-7,-1,-2,-4,-2,0,-1
1481271445747694,0,-1,1,-5,-2,-1,2,-4
1481271445747694,1,-2,-2,4,0,-1,-1,-5
1481271445755760,-4,-2,-2,1,5,-1,7,1
1481271445755760,3,-4,-1,-1,5,2,-1,3
1481271445769723,-1,-7,-3,0,-2,-2,0,0
1481271445769723,-2,4,0,-1,0,2,2,4
1481271445784761,1,-4,1,-3,-8,1,0,1
1481271445784761,2,-5,-3,0,3,3,2,0
1481271445793693,-2,2,-2,-1,-2,-3,0,-3
1481271445793693,0,-3,-1,-2,3,-5,2,-2
1481271445794694,-6,0,-2,-6,1,-4,-8,-2
1481271445794694,4,-8,-2,-1,-9,0,-2,-1
1481271445806717,-2,1,6,3,-2,7,0,3
1481271445806717,-1,2,-4,1,-1,-1,-6,2
1481271445823706,-2,0,-1,1,1,3,-4,-7
1481271445823706,-2,0,4,-2,-11,-5,1,-9
1481271445829716,-2,-6,-4,-2,0,-6,3,2
1481271445829716,3,-3,-2,0,0,-2,-1,1
1481271445836796,4,-2,-2,-2,-4,2,-5,0
1481271445836796,1,2,-5,-3,1,-4,-3,2
1481271445852795,2,0,1,-4,0,-1,-2,-4
1481271445852795,-3,2,1,-1,-3,1,-1,-2
1481271445854716,1,3,1,-4,-3,0,3,-1
1481271445854716,2,-2,1,-1,1,1,-3,-4
1481271445866785,-5,5,-3,-1,-1,-1,-2,-1
1481271445866785,-2,1,-1,0,-5,-3,0,-6
1481271445875718,-3,-5,-3,2,0,-5,-5,-4
1481271445875718,-6,-3,-6,-1,1,-2,-4,0
1481271445889721,0,-1,-4,-1,-1,-2,-1,1
1481271445889721,-3,-1,0,0,2,6,1,3
1481271445896720,-5,-4,-1,1,2,-1,7,3
1481271445896720,3,-2,0,0,2,-3,-1,3
1481271445929778,-5,-4,0,2,3,-2,2,2
1481271445929778,-4,-5,-2,-6,-6,0,-1,5
1481271445930740,-2,1,-1,1,-5,-4,-2,2
1481271445930740,0,0,1,-1,1,0,-3,-3
1481271445931740,-3,1,-2,-1,0,1,-3,0
1481271445931740,3,2,0,5,5,4,1,-2
1481271445935741,1,-2,0,-4,-1,0,1,-6
1481271445935741,-4,-1,-2,-2,-3,2,1,0
1481271445958753,2,-6,4,0,-2,-3,-2,-4
1481271445958753,0,-1,-1,-1,-1,-5,-8,-7
1481271445959742,1,0,-4,-1,0,-1,-3,-1
1481271445959742,1,0,-2,-2,-6,-1,-1,-3
1481271445972822,3,-5,0,-4,1,1,1,-3
1481271445972822,7,2,0,0,-4,-6,0,-2
1481271445974745,0,0,0,1,-2,-7,0,2
1481271445974745,-4,-5,-3,-1,-2,-3,-1,1
1481271445995747,1,2,-3,-4,-3,2,2,-5
1481271445995747,2,2,0,2,4,0,0,5
1481271445996748,1,-1,-1,4,2,3,0,-2
1481271445996748,0,1,2,4,0,0,0,2
1481271446010308,-2,-5,-1,3,-2,0,-4,0
1481271446010308,0,-2,-1,-4,1,-1,-1,-2
1481271446024818,-1,-1,0,-2,-2,0,3,0
1481271446024818,-3,4,-5,0,7,2,-1,0
1481271446033416,3,0,-1,2,3,3,1,1
1481271446033416,-6,1,2,0,1,0,-2,-1
1481271446034456,1,-4,-3,0,-3,2,-1,0
1481271446034456,-1,0,2,-3,-4,-5,0,0
1481271446046435,3,0,-1,-5,-5,-3,0,-5
1481271446046435,-1,-6,-1,-5,-4,1,0,-2
1481271446063416,0,-3,-2,-6,5,-5,-3,-3
1481271446063416,-3,-5,-4,-5,-2,-4,-1,2
1481271446070550,-9,1,-7,-5,-1,-3,-1,2
1481271446070550,-2,-2,2,-2,2,3,3,1
1481271446076422,-1,-2,2,-4,-3,-1,0,1
1481271446076422,-2,-1,-3,-7,-1,0,1,-5
1481271446100421,2,5,1,-1,-2,-2,0,0
1481271446100421,0,1,-2,1,-4,-3,1,1
1481271446102421,-2,1,0,-1,2,2,0,-3
1481271446102421,-2,2,3,0,2,2,1,-4
1481271446106442,2,-4,0,-1,-1,2,-2,-8
1481271446106442,2,0,-2,-5,2,-3,1,-4
1481271446115933,-6,0,0,0,1,-1,1,-2
1481271446115933,4,-1,3,1,0,-3,0,-3
1481271446129941,2,-3,2,4,1,-2,-1,0
1481271446129941,-4,-7,-7,-5,1,1,-1,0
1481271446137008,-1,-6,-2,0,7,-2,-1,7
1481271446137008,-7,-4,-1,-3,2,1,-2,1
1481271446152019,-5,-1,-2,-3,1,-5,-4,6
1481271446152019,-1,0,-2,-2,-1,-1,-4,-4
1481271446168056,-1,0,-2,-5,1,-1,1,-1
1481271446168056,-2,1,-5,0,-3,-2,3,-1
1481271446168056,-4,4,0,-2,2,1,3,-4
1481271446168056,-2,-2,0,1,-1,1,-4,0
1481271446175965,1,-2,0,-1,0,0,-4,-1
1481271446175965,3,7,-3,1,-2,2,0,1
1481271446189945,3,-4,-2,-3,-3,-2,-1,-1
1481271446189945,1,2,3,0,-7,-4,2,0
1481271446205943,-4,0,-1,2,-2,-1,2,-2
1481271446205943,0,-8,-6,-5,-3,-1,0,-2
1481271446212990,-4,-3,5,-1,-2,2,-2,2
1481271446212990,-7,2,-5,-4,6,-2,-3,0
1481271446219454,0,2,-2,-2,-5,-1,1,-5
1481271446219454,-2,1,0,1,3,1,-1,-2
1481271446236031,-2,2,1,-2,-3,0,0,1
1481271446236031,1,1,-2,2,0,2,2,-6
1481271446237082,-3,-2,1,-4,-3,-4,-5,-1
1481271446237082,1,-2,3,-2,-3,-5,-1,0
1481271446249962,-3,-1,-7,-3,8,1,2,3
1481271446249962,-2,-2,-3,-2,-2,3,-3,-3
1481271446256967,2,1,-1,-2,-5,-1,1,-5
1481271446256967,0,-2,2,0,-3,0,-1,2
1481271446273004,0,2,-1,1,-3,0,0,3
1481271446273004,3,1,1,-1,1,-2,2,5
1481271446278968,0,-3,-2,-1,3,0,1,0
1481271446278968,-3,0,-4,-4,-4,-6,-7,-5
1481271446302967,3,1,-3,-2,-2,-1,0,-3
1481271446302967,0,-2,-1,2,-1,-2,-2,-1
1481271446304966,-2,-3,-3,0,-5,1,-6,-5
1481271446304966,1,3,0,2,-4,-6,-6,-1
1481271446310509,-2,-2,2,0,-4,-5,-5,-1
1481271446310509,0,-1,1,-1,-8,1,-2,-4
1481271446316974,-3,0,1,-1,-3,-4,2,3
1481271446316974,-3,-6,2,-4,0,1,3,-4
1481271446341096,2,-4,1,-3,-1,2,3,-4
1481271446341096,-1,1,0,-1,-2,-4,2,6
1481271446342030,1,0,-1,-4,-4,-2,-2,-1
1481271446342030,-3,1,-4,3,3,1,-2,-3
1481271446355067,3,-1,-5,2,1,-4,-2,-5
1481271446355067,-3,-2,2,-1,0,0,0,-1
1481271446362049,3,-2,-2,4,-1,0,-6,1
1481271446362049,2,-2,2,-5,1,-1,-2,3
1481271446377991,-4,-12,-2,-2,0,-3,0,-5
1481271446377991,1,-1,-2,-3,0,-2,3,0
1481271446379989,2,-1,-3,2,-1,3,0,1
1481271446379989,-1,1,-4,-1,-10,0,-3,-2
1481271446393061,0,1,-4,2,-1,-1,0,3
1481271446393061,0,-1,2,-1,-2,0,2,0
1481271446407090,-8,2,0,-5,-3,-1,1,1
1481271446407090,-1,3,-3,-1,-1,2,6,-1
1481271446416067,-2,1,4,1,0,0,-3,1
1481271446416067,-3,-1,-1,4,6,2,-4,-8
1481271446417504,2,-1,-1,-2,0,0,0,3
1481271446417504,3,-2,-2,0,1,3,2,-3
1481271446429959,-4,-2,1,-2,0,-2,-3,-6
1481271446429959,-2,-6,2,-1,5,-5,3,1
1481271446443960,0,-3,0,-1,-2,0,0,2
1481271446443960,-2,-1,-1,5,5,1,-1,5
1481271446453081,-1,2,-2,0,0,-1,-2,-3
1481271446453081,-3,-2,-4,-1,-4,-2,-5,0
1481271446483960,-2,-2,1,2,10,-1,2,2
1481271446483960,4,-3,-2,-6,-4,-2,0,-1
1481271446485023,3,0,-1,-4,2,-4,0,0
1481271446485023,3,-4,-4,-3,-4,-2,-3,-2
1481271446485961,-2,-1,0,0,-3,-1,0,-2
1481271446485961,0,2,0,4,5,2,-1,-1
1481271446489992,2,-2,1,5,5,4,-2,3
1481271446489992,1,0,1,-1,-1,-1,-2,-1
1481271446496962,3,-2,0,-1,2,-4,-1,-6
1481271446496962,-5,-2,-1,-1,-2,0,1,-1
1481271446513537,0,5,-3,-3,-1,-2,1,-1
1481271446513537,-5,0,-1,-3,1,-3,-7,0
1481271446519477,3,1,-1,-3,-4,-3,-5,-2
1481271446519477,-1,-2,-3,-3,-1,-5,0,-3
1481271446536062,-4,-4,2,-3,-5,0,-1,-2
1481271446536062,3,-3,-1,0,-2,1,3,-2
1481271446536986,0,0,2,-2,-4,2,3,8
1481271446536986,2,-1,4,-3,-6,2,4,1
1481271446549990,1,6,2,-2,-7,-1,-3,0
1481271446549990,1,2,-2,1,2,2,-3,-2
1481271446556990,0,4,-7,-2,-2,-4,1,-1
1481271446556990,-3,-1,0,1,3,0,1,2
1481271446581118,-1,-3,1,1,0,1,1,3
1481271446581118,-2,-2,4,5,4,6,-2,3
1481271446582988,-1,-1,0,1,0,3,-3,0
1481271446582988,0,-5,2,-4,-3,-3,-2,-2
1481271446596055,1,1,-4,-2,-5,-3,1,-2
1481271446596055,1,1,-4,-3,-5,3,-2,-1
1481271446596987,-2,2,-1,3,1,-3,1,5
1481271446596987,5,1,1,-1,2,-1,1,-3
1481271446618563,-2,1,1,0,-1,2,-2,4
1481271446618563,-3,-3,-3,-2,-5,-6,4,1
1481271446620000,-4,1,0,-3,-6,-1,-6,-6
1481271446620000,2,0,0,-1,2,3,-2,-2
1481271446632089,-2,0,-3,-5,-3,-1,-3,-5
1481271446632089,2,-1,-6,-5,-2,2,2,1
1481271446641011,4,-1,-3,-1,-1,-4,3,0
1481271446641011,-1,-3,-2,0,1,1,-4,-1
1481271446656134,-4,-6,-6,-7,-1,-2,-2,-3
1481271446656134,1,0,0,-1,2,1,-2,2
1481271446657065,-5,-12,-1,-3,2,-4,-1,-2
1481271446657065,-2,2,-4,2,0,1,3,0
1481271446670015,3,2,0,1,1,1,3,1
1481271446670015,2,1,-1,3,1,-2,-3,-3
1481271446684012,3,1,0,1,-1,-4,-2,-4
1481271446684012,-1,-1,-5,-1,-7,-1,-4,-2
1481271446693055,-4,0,0,-1,-1,3,2,2
1481271446693055,1,2,4,-2,-3,-5,-1,0
1481271446699020,-3,-2,1,-1,-3,-4,3,-1
1481271446699020,-5,3,0,-3,-1,-4,-3,-5
1481271446723596,3,3,-2,2,-4,-3,-4,0
1481271446723596,-3,2,-1,2,0,1,0,-2
1481271446725029,4,5,1,2,-1,2,-4,0
1481271446725029,-1,-3,2,-6,-5,-6,-2,3
1481271446730040,-3,-5,-5,3,1,-1,1,0
1481271446730040,2,1,0,0,-4,-2,-4,0
1481271446737049,-2,4,-4,-2,-2,-1,-6,-2
1481271446737049,-1,-3,-5,-1,-3,-2,-1,1
1481271446761096,0,-8,-2,1,5,-5,-6,1
1481271446761096,-3,-2,-2,-2,-4,-4,1,0
1481271446762074,-2,1,-4,-2,3,-4,-1,-2
1481271446762074,0,4,1,3,5,3,-6,1
1481271446776103,-5,-1,0,-7,-3,1,0,-1
1481271446776103,-2,-2,0,-1,2,-3,-2,2
1481271446777073,-6,-2,-2,-2,2,4,2,1
1481271446777073,2,6,-1,-2,-6,0,0,-2
1481271446790119,0,5,2,-1,4,1,0,-1
1481271446790119,-1,-3,2,-2,0,-2,-1,-2
1481271446798047,-1,1,1,1,-2,-2,1,-3
1481271446798047,-3,-2,1,0,-1,-4,0,-1
1481271446812558,-3,-4,-1,-1,-1,-3,3,-4
1481271446812558,-1,2,-4,-5,-8,-2,-7,1
1481271446827058,-3,0,-1,-3,-1,2,-2,-5
1481271446827058,-1,-3,-3,5,2,-1,4,3
1481271446836126,-4,-2,2,-2,1,0,-3,-2
1481271446836126,1,1,-1,-2,1,-1,-1,0
1481271446837055,1,-2,2,-3,-3,-1,-1,5
1481271446837055,-1,2,3,-3,-5,-1,-5,0
1481271446858061,6,1,-2,-2,-6,-1,1,3
1481271446858061,-4,-2,-5,-3,-5,-3,-1,3
1481271446860057,1,-5,-4,-5,1,-1,-2,-3
1481271446860057,-2,-1,0,-5,-1,-3,2,-1
1481271446872124,3,1,-1,-5,-6,-2,-2,-2
1481271446872124,0,2,0,-4,-4,0,0,-6
1481271446879057,0,3,2,0,-1,-1,-5,1
1481271446879057,-7,-4,0,-1,-1,2,-5,-2
1481271446896084,-2,3,-2,2,3,1,0,-2
1481271446896084,-3,4,2,-4,2,-5,5,1
1481271446897123,4,-6,-6,-1,-6,-1,0,-5
1481271446897123,-2,-1,-3,-3,-4,-1,-3,-1
1481271446909073,-1,0,-2,-5,-8,-5,-3,-1
1481271446909073,0,-2,-5,1,-5,-5,1,-2
1481271446918575,-2,2,2,-4,0,-2,0,-7
1481271446918575,6,-1,1,0,-2,0,-2,-1
1481271446932899,0,-1,-1,-3,2,0,-1,3
1481271446932899,-1,-1,-2,0,-4,-4,-5,-6
1481271446938916,-1,4,-1,-3,-2,-1,-2,0
1481271446938916,2,-1,-1,0,3,-6,1,2
1481271446955976,-1,-5,-6,2,0,-5,-2,0
1481271446955976,-1,-2,-3,2,1,11,3,3
1481271446956985,-5,-1,0,2,2,1,2,3
1481271446956985,2,7,2,-1,3,-5,-2,0
1481271446969901,0,0,3,-1,-3,-3,-2,-2
1481271446969901,4,-5,0,-4,-11,-7,-1,-2
1481271446978917,-6,-2,-2,-3,-6,0,-4,2
1481271446978917,-3,-1,-9,-2,2,-2,-2,0
1481271447000902,-6,0,1,-2,-5,-3,2,-3
1481271447000902,1,2,1,0,2,0,1,-4
1481271447001943,-1,1,-1,-2,0,1,-2,-1
1481271447001943,1,-1,0,0,-2,4,-1,1
1481271447015916,3,-1,0,1,1,1,3,2
1481271447015916,-3,-5,-1,0,5,1,2,1
1481271447017414,4,3,3,4,0,-6,-2,-3
1481271447017414,-2,-7,-4,-6,-3,-2,-1,0
1481271447038847,-2,1,-5,-1,1,3,-4,0
1481271447038847,1,1,2,0,-7,1,-1,-1
1481271447039915,-5,-2,0,-4,1,-2,2,2
1481271447039915,-4,-2,-1,1,-3,-1,-1,1
1481271447052877,-4,1,2,2,0,-3,-2,-5
1481271447052877,-2,-2,-2,-4,5,1,-3,2
1481271447066854,-2,2,2,-1,0,-1,-5,1
1481271447066854,0,-2,-1,0,2,-3,0,-4
1481271447074860,-1,-3,-1,3,0,-2,-2,1
1481271447074860,-7,1,0,1,4,1,0,-2
1481271447081852,1,-4,-5,-3,-4,-3,3,-7
1481271447081852,-6,2,1,-4,-2,-4,0,-1
1481271447089857,3,-3,2,4,1,1,3,3
1481271447089857,-4,0,-2,3,3,-3,-1,0
1481271447105852,-4,-3,-3,-2,-4,-1,-2,0
1481271447105852,0,1,2,1,1,1,3,0
1481271447112908,0,1,3,0,-2,1,1,1
1481271447112908,0,-5,-4,-1,-1,-1,-4,-1
1481271447119367,2,-3,-2,-3,1,1,-1,1
1481271447119367,-2,4,0,1,0,2,-1,-5
1481271447135474,-2,0,-8,-7,-9,3,-1,-4
1481271447135474,0,-1,2,0,-4,0,5,-5
1481271447141477,-1,3,-2,2,0,-5,-1,-4
1481271447141477,-4,-3,0,1,-7,-3,-2,-5
1481271447149495,2,-3,-3,-1,-3,-6,-1,-1
1481271447149495,1,-1,-5,-4,-5,3,-4,2
1481271447158472,0,0,3,-1,-3,1,-2,2
1481271447158472,-1,-6,-4,1,-5,1,2,1
1481271447172479,-3,-1,0,-3,-4,-3,1,-4
1481271447172479,3,-4,0,-4,3,-5,2,-3
1481271447179473,2,-3,0,3,0,0,1,-1
1481271447179473,2,-2,2,0,2,-2,-1,-6
1481271447194479,2,0,-4,2,12,1,2,1
1481271447194479,-4,4,2,2,5,0,2,0
1481271447209495,0,-1,-3,-2,3,1,4,-2
1481271447209495,2,-3,-7,1,9,-1,1,2
1481271447218487,3,2,-2,0,-2,3,-6,-4
1481271447218487,1,0,0,2,3,1,-4,1
1481271447220988,5,2,2,-1,-3,1,2,-1
1481271447220988,-4,-3,-2,-4,0,0,2,2
1481271447241000,-4,0,0,1,5,2,1,-7
1481271447241000,-5,-1,-3,-2,-4,-2,1,3
1481271447241996,0,-1,0,6,5,-1,-5,1
1481271447241996,4,3,-4,-4,-5,-1,-2,-1
1481271447254997,2,2,-3,-4,-8,0,-4,-3
1481271447254997,-1,3,3,-1,-7,-4,-4,-5
1481271447262003,-2,0,0,2,1,-1,-1,0
1481271447262003,0,-1,-2,-6,-4,-3,-5,-4
1481271447278038,-1,-3,2,2,3,2,0,2
1481271447278038,0,-4,-2,-8,-10,-1,0,3
1481271447279999,-2,-2,0,-5,-8,-2,-1,0
1481271447279999,1,1,-1,-6,-2,2,2,0
1481271447317013,-2,-1,-1,-5,-7,-2,3,3
1481271447317013,2,2,-2,3,1,-1,-2,-8
1481271447318510,1,-3,0,-1,-3,1,-4,-1
1481271447318510,-3,-2,-2,0,2,2,-4,-1
1481271447319510,1,-1,2,4,5,1,5,-1
1481271447319510,0,-2,1,-1,-2,-1,-3,-7
1481271447323510,-1,-5,-2,0,0,-4,-2,-1
1481271447323510,1,5,8,-2,-7,1,-3,-1
1481271447346054,1,1,-2,-5,-2,-6,2,-5
1481271447346054,2,-3,0,0,5,-2,-1,1
1481271447347020,1,0,-1,-1,2,-5,-2,-4
1481271447347020,0,2,0,-1,1,-4,-3,-2
1481271447353025,-2,-2,-1,0,-1,-2,1,1
1481271447353025,1,5,1,-2,0,4,0,4
1481271447359025,-4,-5,-5,-6,-5,0,0,-1
1481271447359025,3,-2,-1,5,3,-2,5,6
1481271447383022,2,-3,0,-7,-1,0,-2,-2
1481271447383022,2,0,-5,-2,-1,-1,1,-5
1481271447385022,0,-4,-1,1,-3,0,0,1
1481271447385022,-2,-6,-2,3,0,2,-3,-1
1481271447398022,-1,-1,1,-6,-7,-3,-3,-4
1481271447398022,-5,-4,-2,2,0,1,1,2
1481271447400023,-4,2,-3,-2,0,3,2,-2
1481271447400023,-1,-4,-3,2,-2,2,1,0
1481271447413036,-1,3,-5,1,1,4,-2,4
1481271447413036,0,-1,1,-2,0,-5,1,1
1481271447419540,-3,1,-1,2,2,7,0,-3
1481271447419540,-4,3,-3,-6,-5,-7,-1,-7
1481271447434798,-2,0,-2,0,-1,-3,-3,0
1481271447434798,-5,1,4,-1,-6,-4,-5,0
1481271447449795,-1,0,-1,1,7,5,1,7
1481271447449795,-2,-1,-2,2,0,-2,3,0
1481271447457795,-2,-2,-2,-1,2,-3,-2,-2
1481271447457795,-2,-1,-3,2,2,-5,1,-4
1481271447459797,-2,-3,2,-4,-8,-5,-1,-2
1481271447459797,-2,0,-2,-2,-7,-1,-3,-4
1481271447472805,-3,-4,1,-4,-8,-3,-2,0
1481271447472805,-1,-5,0,-1,-2,2,2,1
1481271447486798,-1,-1,-2,0,-6,-3,-2,-4
1481271447486798,-6,0,0,3,3,3,0,2
1481271447494798,1,-1,6,3,3,1,2,0
1481271447494798,0,-2,-4,-1,-7,0,0,1
1481271447501798,3,5,-1,4,4,2,0,-2
1481271447501798,3,1,2,4,1,1,0,-1
1481271447518319,4,-1,1,-3,2,-6,2,-6
1481271447518319,-3,0,1,2,7,4,-3,0
1481271447519815,1,2,-3,-1,-3,-3,-2,-3
1481271447519815,-4,-3,4,1,2,-2,1,1
1481271447533093,-2,2,-4,-5,-3,-1,1,1
1481271447533093,4,0,-2,-1,-4,0,2,-3
1481271447539089,-3,-1,-2,-4,-3,-2,0,6
1481271447539089,1,-1,-4,-6,-3,3,-3,0
1481271447555092,-3,-5,-2,0,-3,1,-2,-1
1481271447555092,-3,-1,-1,-5,-2,-1,2,1
1481271447562092,0,1,3,1,-1,1,2,-1
1481271447562092,-1,0,-2,-5,-6,-1,-1,-5
1481271447578092,-1,0,-3,1,-5,2,0,0
1481271447578092,4,6,-1,-1,-1,-1,-5,0
1481271447580093,-1,-3,3,0,3,-1,3,-3
1481271447580093,7,4,1,-3,0,-2,-1,-1
1481271447592094,-2,-6,3,1,2,-2,0,-2
1481271447592094,-3,-2,3,-6,4,-7,-2,-4
1481271447601094,-1,-3,-1,3,2,0,2,2
1481271447601094,-1,-2,-3,-2,0,-5,6,-3
1481271447615110,3,8,4,6,-1,0,0,-1
1481271447615110,3,-2,2,-2,-3,-2,0,0
1481271447622111,0,-1,0,-2,-4,-4,1,-1
1481271447622111,4,-4,2,1,2,0,-1,-3
1481271447638717,2,-3,-3,-7,-3,0,-2,3
1481271447638717,1,-4,-6,0,2,-2,2,-4
1481271447639621,-2,3,3,-1,3,-1,-2,-5
1481271447639621,-4,-5,-5,-3,-6,-1,-3,0
1481271447660620,0,-1,2,-1,-1,1,-1,-2
1481271447660620,0,3,5,4,2,0,1,-1
1481271447662621,2,4,-1,-4,-3,-1,-3,0
1481271447662621,-3,-9,0,-1,-5,-4,-3,-2
1481271447674622,-1,-4,-6,0,-2,-2,0,3
1481271447674622,1,-1,-3,-1,-3,-1,0,0
1481271447681625,-4,-3,-1,-7,-4,-1,2,-2
1481271447681625,0,-5,-1,-1,5,-1,0,-2
1481271447698645,6,3,1,1,-2,-2,-3,0
1481271447698645,-1,1,0,0,0,2,-2,2
1481271447699622,2,-1,-1,-2,-4,-6,-1,-3
1481271447699622,-4,1,-5,1,-2,-1,1,-1
1481271447712132,-4,-1,0,-4,3,3,-2,-4
1481271447712132,-1,-2,-1,0,3,-2,0,-1
1481271447721134,-1,-5,-1,1,-1,-2,-1,0
1481271447721134,-4,5,-2,2,2,5,0,0
1481271447734644,-4,-1,-3,0,2,-5,-1,0
1481271447734644,1,1,-1,0,-1,1,1,-2
1481271447749707,2,-5,0,-2,-5,3,0,1
1481271447749707,-2,4,1,0,1,-4,-2,-5
1481271447758646,0,-4,-3,2,-3,5,4,6
1481271447758646,-2,1,3,-1,-2,-1,0,-4
1481271447759647,-1,7,1,3,-1,-3,-5,-5
1481271447759647,2,-7,-2,-7,-5,1,0,-3
1481271447771646,-2,2,3,0,-4,-4,-1,-5
1481271447771646,-1,-4,0,0,-1,-6,-5,-2
1481271447780646,-1,-1,2,1,2,0,2,-2
1481271447780646,3,-6,-3,-3,-4,-3,3,3
1481271447794646,-7,-3,-2,-7,-3,-6,-4,-6
1481271447794646,2,-3,4,-1,-7,-5,-3,1
1481271447801647,-2,-2,-3,1,-2,-2,6,-2
1481271447801647,5,2,-2,-1,1,-2,-3,-2
1481271447818181,2,-2,-4,0,-2,-1,4,0
1481271447818181,-1,-1,-4,-3,-1,2,-4,3
1481271447819682,4,0,-6,-2,-4,-2,0,3
1481271447819682,-3,1,-1,-1,-2,-4,-1,-1
1481271447831757,-2,-2,-5,2,2,3,3,-3
1481271447831757,1,-6,0,-2,0,-9,-4,-2
1481271447840690,-4,-6,0,-3,-3,-3,0,-3
1481271447840690,-6,-3,2,-1,1,-3,1,3
1481271447854760,0,-1,2,-3,-3,-2,-4,-4
1481271447854760,-8,-1,-5,-1,-5,6,-2,-2
1481271447861691,-2,-4,-5,1,3,3,-4,-4
1481271447861691,4,-6,-7,-4,1,3,2,2
1481271447877693,1,4,2,2,1,-4,-3,3
1481271447877693,1,6,-2,-6,0,-2,3,3
1481271447879692,2,-3,-4,-5,-3,-8,-7,1
1481271447879692,2,-3,-2,3,-7,1,-6,-6
1481271447891700,3,-5,0,-2,-3,1,0,5
1481271447891700,-1,-2,-2,2,-4,-1,1,-1
1481271447900693,-1,-1,2,-2,-2,2,0,3
1481271447900693,-4,3,4,6,-1,4,2,4
1481271447915206,-4,-5,-1,0,1,3,-2,-2
1481271447915206,-2,-3,0,-2,0,-3,-5,-2
1481271447922258,0,0,-3,-4,2,-2,-3,-2
1481271447922258,0,6,7,-3,-2,-4,-7,-7
1481271447938561,-3,-2,1,1,6,1,-3,-2
1481271447938561,1,0,0,0,4,-1,-5,7
1481271447939494,-1,-2,-2,1,3,-3,-3,1
1481271447939494,-1,1,-5,-5,0,0,-6,2
1481271447951575,-1,2,-3,-2,-5,-2,2,0
1481271447951575,-1,-1,-3,1,-2,2,1,-4
1481271447960533,-4,-1,-5,-1,0,-1,-7,-1
1481271447960533,4,-8,-5,-3,-1,-1,6,1
1481271447975561,0,2,1,-1,0,-6,1,-3
1481271447975561,-2,-5,-4,1,4,2,-4,0
1481271447981555,0,6,2,-1,-2,3,2,7
1481271447981555,-4,-1,-1,-5,3,2,-1,1
1481271447997504,-2,1,-5,1,-2,-1,-2,-3
1481271447997504,-1,4,0,1,3,4,5,-3
1481271448004501,1,0,3,2,6,2,-3,-2
1481271448004501,0,-1,2,-2,3,-3,0,-4
1481271448012011,-2,0,2,-4,-5,-8,-2,3
1481271448012011,3,1,1,2,-4,-1,-2,0
1481271448021012,0,-2,0,-3,-7,2,-1,1
1481271448021012,-1,-3,0,1,-7,-6,-1,-5
1481271448035020,2,0,-1,-5,-2,0,-1,-6
1481271448035020,4,0,0,-2,0,-3,-4,0
1481271448042019,-3,-2,2,2,-1,-6,1,-2
1481271448042019,-3,4,-3,-1,4,-1,-2,-1
1481271448058027,-3,-2,-6,0,3,2,0,9
1481271448058027,-2,0,5,-5,-3,2,-2,-2
1481271448064099,-3,-3,2,-3,-5,1,0,-6
1481271448064099,1,4,2,2,-6,-4,0,7
1481271448072100,2,-2,-1,1,3,-3,-1,-1
1481271448072100,-5,1,-5,-1,-5,2,-4,0
1481271448081025,-4,-8,-7,-2,0,-2,3,1
1481271448081025,-1,-1,1,1,3,2,1,3
1481271448095023,-5,2,-2,-1,1,-4,-6,-7
1481271448095023,2,0,-1,-1,-3,-4,1,-1
1481271448102082,7,9,0,-4,-2,-3,-3,0
1481271448102082,-4,-1,-2,0,-8,-5,-4,0
1481271448118075,0,-5,-1,-3,0,-2,3,0
1481271448118075,2,-1,-4,-4,1,-1,4,-1
1481271448124536,-3,4,-3,0,-2,1,-1,-4
1481271448124536,-1,0,4,-4,-4,-4,-8,-10
1481271448132118,3,0,-3,-3,-5,0,2,1
1481271448132118,-3,-1,5,-4,-5,-6,-3,-2
1481271448141046,-3,0,4,1,8,-1,0,-7
1481271448141046,2,-4,4,-5,-4,-1,0,-5
1481271448155104,-4,-7,2,-1,-3,2,0,0
1481271448155104,-9,-7,-5,2,3,0,-3,-6
1481271448162111,-2,0,-2,-2,-1,-6,-3,4
1481271448162111,0,1,-3,-2,2,-2,2,3
1481271448177047,-2,-3,6,-2,0,-2,-2,0
1481271448177047,-1,-5,1,-3,-3,-4,-4,-1
1481271448184046,1,-2,1,5,-4,-2,1,3
1481271448184046,1,-2,1,2,1,-1,-3,2
1481271448200048,-2,0,1,2,-1,-1,0,-4
1481271448200048,3,3,0,-1,-7,-3,-2,1
1481271448201045,-3,-3,-6,1,-2,2,-2,1
1481271448201045,-6,0,1,2,2,3,-2,2
1481271448216059,-3,2,1,4,3,-2,-4,-3
1481271448216059,2,-2,-3,0,2,-2,3,2
1481271448222063,0,-2,-3,1,-1,-2,-4,1
1481271448222063,-4,0,0,0,1,1,0,-4
1481271448237071,4,5,-1,3,0,1,3,4
1481271448237071,-1,-1,3,0,-3,-2,2,2
1481271448244070,-2,2,0,-1,-7,-7,-1,-2
1481271448244070,-2,-1,2,5,3,1,3,-3
1481271448260070,0,2,-1,2,5,-2,3,2
1481271448260070,-3,8,-1,0,-5,0,-2,-1
1481271448261105,-2,0,-3,0,-2,-5,-7,-3
1481271448261105,4,0,1,-4,-2,-7,0,-2
1481271448276073,0,-1,1,-2,0,-2,1,-2
1481271448276073,-4,-6,0,-1,4,-2,1,-6
1481271448282071,1,-3,0,-2,2,-1,2,-1
1481271448282071,-2,1,-3,-1,-7,2,-1,0
1481271448297154,-1,-3,-5,-3,1,-1,-3,-2
1481271448297154,0,-2,-4,-5,5,-1,1,1
1481271448304142,3,-8,-2,1,0,-2,4,0
1481271448304142,-5,-3,4,0,-2,-6,-1,-3
1481271448320088,1,-2,3,-2,-2,-1,-3,-4
1481271448320088,1,7,-1,-3,0,3,0,-2
1481271448321085,-3,1,-5,0,-9,-1,-6,-6
1481271448321085,2,0,-5,1,-4,-1,2,1
1481271448335654,-1,3,1,-1,-1,-1,3,0
1481271448335654,1,-2,3,-2,-2,-2,-3,0
1481271448341656,-4,-1,-2,-10,0,3,1,-7
1481271448341656,0,5,-2,-3,3,-1,1,3
1481271448356657,2,3,0,-4,-7,-2,-2,4
1481271448356657,-2,3,2,0,-2,-2,-6,-7
1481271448364735,-1,0,2,-2,-1,-4,-2,-2
1481271448364735,-2,-1,-4,3,2,5,3,-2
1481271448379659,0,-3,-1,0,-2,-3,-7,-3
1481271448379659,1,-2,-4,-1,4,-1,-2,1
1481271448380681,3,-6,1,-6,-7,0,-2,3
1481271448380681,-3,2,-3,-3,-3,-1,-3,0
1481271448395656,-1,-2,-2,1,-1,0,-8,-1
1481271448395656,-2,-5,-6,-2,0,-3,0,2
1481271448409662,-6,-2,2,-1,5,5,1,1
1481271448409662,0,-4,0,0,4,0,-6,-1
1481271448417170,-2,4,-3,-2,2,2,6,2
1481271448417170,2,0,-1,0,1,-1,8,-1
1481271448424706,-3,3,8,-1,-7,1,1,-5
1481271448424706,-1,-4,-8,-1,2,0,0,0
1481271448439960,-2,-2,-1,-2,-8,2,-4,-3
1481271448439960,-5,-4,0,-6,3,2,2,1
1481271448440884,-4,5,4,-7,3,-9,-5,-7
1481271448440884,2,-5,-6,-5,4,-5,-1,-3
1481271448455880,4,-2,1,-4,3,-4,0,4
1481271448455880,-6,-1,-4,0,-4,-3,2,-5
1481271448461882,-1,-2,-3,-1,2,5,1,7
1481271448461882,1,-3,-1,-2,-6,-3,0,5
1481271448477910,-5,-5,-4,0,3,4,-3,-3
1481271448477910,1,-1,4,-2,-8,0,-2,-5
1481271448483887,1,-1,-7,1,9,0,0,1
1481271448483887,-2,5,3,0,-5,-5,-3,-1
1481271448499908,0,-1,2,0,-6,-4,3,-6
1481271448499908,3,1,0,-2,-2,4,6,12
1481271448500885,3,-11,-6,1,3,-2,1,0
1481271448500885,-1,3,-4,-3,-4,-1,-4,-3
1481271448515904,4,0,-4,-5,-2,-1,1,-4
1481271448515904,3,2,-2,5,1,-3,-2,1
1481271448522409,2,3,0,1,-3,0,-2,-6
1481271448522409,-4,-2,4,-1,-2,3,4,0
1481271448538415,0,-2,3,0,-3,-3,0,3
1481271448538415,-5,0,-4,2,4,4,1,-3
1481271448544476,-6,-1,1,1,4,2,2,3
1481271448544476,2,-4,-2,-2,-4,-5,0,-2
1481271448560480,-2,0,1,1,-7,2,-1,-7
1481271448560480,-3,-6,2,4,0,-2,-6,-6
1481271448561480,2,-1,2,1,-1,-6,1,-2
1481271448561480,-3,-4,-6,-1,-6,-1,2,0
1481271448584485,-9,-6,-4,-3,5,-3,-3,-4
1481271448584485,2,-2,-4,0,-1,0,-5,1
1481271448584485,0,1,-1,4,-5,-2,2,5
1481271448584485,3,-2,4,5,5,2,0,0
1481271448598419,2,1,0,4,7,3,5,-2
1481271448598419,0,-1,-2,0,-4,0,2,-2
1481271448604418,-3,-1,-2,-9,-6,-3,-4,-5
1481271448604418,-5,0,2,-2,-5,-3,-7,-3
1481271448620498,-2,-2,-2,2,0,0,-5,-5
1481271448620498,-2,-4,-4,-1,-1,-3,-1,1
1481271448620930,-3,4,-4,-1,-1,2,0,2
1481271448620930,5,1,4,1,4,-1,5,3
1481271448643059,3,-2,0,0,-4,-3,5,1
1481271448643059,-5,-1,0,-4,1,4,-2,-3
1481271448643059,-1,-3,-5,-4,2,5,-1,-2
1481271448643059,0,1,-2,-4,1,-4,4,1
1481271448658104,0,4,-1,-2,-9,-3,0,-2
1481271448658104,-6,0,4,0,-4,-2,-7,-6
1481271448664081,-2,-4,1,3,-3,-8,-4,2
1481271448664081,-3,-4,-4,-4,3,3,-2,-2
1481271448680169,-3,-1,-5,-2,1,3,-1,-3
1481271448680169,3,-4,1,-2,-4,3,6,0
1481271448681067,4,1,-3,-1,-5,1,5,-1
1481271448681067,-4,8,-2,-1,-3,5,-11,-2
1481271448702167,0,8,4,0,6,-9,4,2
1481271448702167,4,11,1,2,2,-3,-1,4
1481271448703068,-4,-4,3,-4,-4,2,1,-8
1481271448703068,1,-10,0,5,-2,-5,0,-5
1481271448718729,1,-19,-4,-8,7,4,0,-1
1481271448718729,-4,-10,-8,-5,23,-4,2,2
1481271448724710,-2,-1,-11,6,-17,-3,-7,-7
1481271448724710,-2,8,-10,-4,-3,-2,3,-1
1481271448739778,2,9,8,1,-8,-1,-4,-1
1481271448739778,-3,1,6,-3,0,1,-2,-1
1481271448740684,1,0,-1,-8,4,0,0,2
1481271448740684,-3,-1,0,-2,5,3,-5,5
1481271448762687,2,-2,-8,2,0,2,4,1
1481271448762687,-1,2,-3,-1,-2,-5,-1,-4
1481271448763690,1,-1,3,-2,1,0,8,5
1481271448763690,2,4,2,3,0,1,3,4
1481271448778686,-4,-9,-2,-4,2,-1,-2,0
1481271448778686,-3,-5,-3,-2,-5,0,-1,-3
1481271448784782,-3,-6,-4,-1,4,1,-1,2
1481271448784782,0,-6,-5,-3,3,-3,-1,-4
1481271448799712,-2,-3,-5,-2,-3,-2,-4,-3
1481271448799712,1,0,0,-1,-5,-5,0,3
1481271448800721,2,-1,2,-2,1,-1,-1,-1
1481271448800721,-1,-3,3,1,2,-1,3,0
1481271448822775,3,2,3,1,0,-1,-2,3
1481271448822775,1,-2,3,-4,-2,1,-2,-5
1481271448823841,0,-3,-1,0,5,-3,-3,-5
1481271448823841,5,-8,4,1,2,-3,-1,-7
1481271448838788,-3,2,0,-2,-11,-3,-9,-3
1481271448838788,-4,2,-2,0,-7,-3,-3,-1
1481271448844792,2,10,3,1,2,-5,-2,1
1481271448844792,5,-4,4,2,3,0,2,-2
1481271448861783,-4,-7,-1,-5,-4,1,3,0
1481271448861783,-1,4,-1,-2,-1,-3,1,-4
1481271448862785,3,-5,-2,0,1,-4,-2,3
1481271448862785,-3,0,-1,-4,-3,-3,1,3
1481271448882853,-6,6,1,-1,3,-3,-2,-3
1481271448882853,6,-2,-4,1,-6,2,-2,6
1481271448882853,-1,1,1,-1,-5,3,1,0
1481271448882853,-9,4,-5,-4,2,-2,-6,-3
1481271448897866,1,-4,0,2,5,1,-3,0
1481271448897866,5,-3,-2,1,-4,-6,1,-7
1481271448904920,-5,-4,-1,1,3,0,1,-5
1481271448904920,0,-4,1,-3,-1,10,-9,-3
1481271448920311,2,5,1,0,-6,-7,6,4
1481271448920311,-2,3,2,2,-1,-7,2,-3
1481271448920798,-4,-2,1,-2,-8,7,-4,-4
1481271448920798,3,-5,2,5,0,3,-1,4
1481271448942490,5,-5,-1,0,0,-2,5,3
1481271448942490,-7,2,-1,-2,-2,-6,-2,-2
1481271448943489,1,1,3,2,0,-6,1,1
1481271448943489,1,1,-6,3,-14,-3,1,1
1481271448966489,-4,-4,-1,-2,0,3,-4,-6
1481271448966489,-6,-1,-3,-2,-3,-4,2,-10
1481271448967489,5,2,-3,-6,16,-3,5,5
1481271448967489,-3,6,2,-6,3,0,-2,2
1481271448979558,0,3,-7,-1,2,-2,4,1
1481271448979558,-1,-9,0,8,-15,5,5,5
1481271448986494,1,-7,-1,0,4,1,0,5
1481271448986494,-5,-3,-3,-5,-10,-6,-3,-13
1481271449002495,-1,3,1,-5,1,-2,0,5
1481271449002495,-1,1,-1,-4,8,1,-4,-2
1481271449003497,-2,-4,-4,2,-12,-2,-3,-4
1481271449003497,-4,-3,-6,0,-3,-2,0,-5
1481271449019022,3,1,-2,5,-2,1,-1,1
1481271449019022,5,-6,0,1,1,3,-3,0
1481271449024528,-5,1,0,-3,2,-4,-4,1
1481271449024528,-1,3,-2,-4,0,-3,8,5
1481271449039113,2,1,-3,1,6,-1,-2,4
1481271449039113,-3,-4,3,-5,-3,0,-3,0
1481271449047058,-3,1,0,-3,0,-1,-5,-5
1481271449047058,7,-3,2,1,4,-1,5,1
1481271449063037,-6,2,1,-1,-6,-1,-4,-6
1481271449063037,-2,0,0,3,2,-2,-1,-1
1481271449063037,0,-1,2,2,1,-1,-3,5
1481271449063037,-7,-2,-1,-6,-5,-1,-3,0
1481271449079036,1,-3,-1,-1,-2,1,-2,-7
1481271449079036,0,-2,2,-4,0,2,1,-1
1481271449084104,3,-2,1,2,-3,-4,-1,-5
1481271449084104,0,2,3,2,5,-1,0,-1
1481271449099117,6,-2,5,3,4,-2,0,3
1481271449099117,1,-6,-2,-5,-4,-1,0,5
1481271449107139,0,0,4,-1,-8,0,1,0
1481271449107139,1,-1,-7,-1,3,0,4,1
1481271449123075,0,-1,-1,-1,3,-2,-2,1
1481271449123075,-1,0,-1,-6,2,-2,-4,-3
1481271449123572,-3,-1,0,-4,-3,-2,0,-12
1481271449123572,1,-2,-3,-6,-9,-5,-3,0
1481271449138677,-7,-2,-4,-7,-10,0,-7,-4
1481271449138677,-1,-1,-2,-1,0,0,-1,-3
1481271449144630,5,-1,0,0,-2,4,6,5
1481271449144630,1,0,0,2,4,1,3,3
1481271449159612,-2,-3,1,6,4,1,0,2
1481271449159612,2,-4,-3,-2,0,5,2,8
1481271449166611,-1,0,-5,-4,-4,1,0,-3
1481271449166611,-5,-3,3,-1,-4,-1,-3,-5
1481271449182712,-5,0,2,-5,-5,-4,-2,1
1481271449182712,0,-5,-2,0,1,-3,4,1
1481271449183610,-4,0,-2,-6,-1,-5,-4,-1
1481271449183610,-2,-1,-2,0,4,1,-5,-7
1481271449198610,1,3,0,-2,3,0,1,5
1481271449198610,2,3,-4,-1,-1,0,-3,0
1481271449204615,-6,-3,-5,-1,-3,1,-5,-2
1481271449204615,6,-2,2,2,-4,-2,3,6
1481271449219628,3,-3,-3,2,-1,2,2,0
1481271449219628,-5,4,-1,-3,-5,-3,1,-2
1481271449227129,-4,-3,-2,1,3,2,1,1
1481271449227129,0,-4,-3,-1,2,-2,2,1
1481271449243036,-4,-4,-2,-5,-4,0,-3,-6
1481271449243036,-2,2,-2,0,-3,0,-8,-2
1481271449243036,2,-3,0,1,0,-3,0,-4
1481271449243036,-2,4,-2,-3,0,3,0,-2
1481271449258075,-1,1,2,-2,1,1,-1,-6
1481271449258075,3,-1,-1,-3,6,-2,1,3
1481271449264031,2,4,-2,-4,-1,-1,2,4
1481271449264031,-7,-1,1,6,2,1,1,2
1481271449279026,1,2,-3,-3,3,-2,-1,-1
1481271449279026,2,-1,-1,0,0,3,-1,-2
1481271449287096,-2,-1,1,-1,0,1,-4,-1
1481271449287096,-4,-7,-6,-8,-10,-6,-3,-5
1481271449302110,-1,-7,-6,-3,-2,-2,2,-1
1481271449302110,-3,-5,-3,-4,-2,-4,-2,-3
1481271449304042,-3,0,-7,0,-4,-2,-5,-1
1481271449304042,-1,-4,1,-1,-5,3,-2,-1
1481271449318544,2,3,-1,1,-4,-7,-2,1
1481271449318544,-3,3,0,1,-2,-4,-2,-1
1481271449324546,0,-2,0,8,10,4,4,-2
1481271449324546,2,-5,-3,-3,-4,-2,-2,5
1481271449339053,-6,-7,-1,0,1,1,1,2
1481271449339053,-6,-2,1,0,-5,-4,-2,-3
1481271449347154,-2,-7,1,-8,-1,2,-7,0
1481271449347154,-2,-4,-1,-1,-6,-1,-5,-8
1481271449362119,-2,-4,-2,1,-1,1,-6,0
1481271449362119,-1,0,0,2,4,0,-1,-1
1481271449363121,2,2,-4,-2,-4,-4,3,-3
1481271449363121,-1,-1,0,-1,-1,-5,2,-2
1481271449379076,1,-1,2,0,-5,3,2,-2
1481271449379076,-1,-5,-5,3,-2,5,5,-1
1481271449384131,-1,-1,2,-4,-2,-1,0,1
1481271449384131,-5,3,3,3,2,2,-5,1
1481271449399053,2,-1,-1,-5,-6,-1,4,2
1481271449399053,-5,-4,3,0,-3,0,-1,-2
1481271449415140,-4,0,-1,-2,-2,-4,3,-4
1481271449415140,-1,1,0,-1,6,0,3,-2
1481271449422705,-3,0,-5,-2,3,-1,0,0
1481271449422705,-1,-2,-1,-5,2,2,-9,-6
1481271449429145,0,1,4,-2,-6,-3,0,-1
1481271449429145,3,2,-1,2,8,-3,1,0
1481271449438146,-2,2,0,0,5,-2,-1,-6
1481271449438146,1,2,0,1,2,3,0,2
1481271449444146,1,-1,-6,-1,1,-1,3,5
1481271449444146,5,0,-2,-1,-2,0,1,1
1481271449459153,-4,-1,3,-7,-4,2,-2,-1
1481271449459153,1,2,-1,0,-2,-3,-4,-3
1481271449467227,2,0,3,3,3,-1,-3,-4
1481271449467227,-7,1,0,-3,2,-4,-2,-4
1481271449482152,-2,-4,-2,1,-7,-4,-5,-6
1481271449482152,4,-1,-1,0,-1,0,7,1
1481271449483198,-5,2,-2,-5,-9,-1,-9,-1
1481271449483198,-2,1,-2,-2,-2,-1,6,-1
1481271449498153,5,6,1,3,1,-4,5,-3
1481271449498153,3,1,5,-3,1,-3,3,2
1481271449504254,-1,-2,-1,-2,-3,-2,-2,-7
1481271449504254,2,1,2,0,2,0,-4,5
1481271449519400,-2,-5,-4,2,-3,-1,-5,-3
1481271449519400,-4,0,3,-2,-4,0,-3,-3
1481271449535009,-5,-5,0,-1,1,2,-5,-4
1481271449535009,8,-3,0,2,2,-1,-1,3
1481271449542970,-4,2,1,5,2,-1,1,2
1481271449542970,-4,-2,-2,-4,-3,4,0,3
1481271449542970,8,-2,-6,0,-3,-3,3,5
1481271449542970,-1,3,-3,1,-1,-4,-2,1
1481271449566037,-4,-3,4,-4,-5,-4,1,-2
1481271449566037,3,-1,-1,2,3,-4,-2,4
1481271449566972,0,-5,-1,-4,-2,1,1,0
1481271449566972,-7,-3,5,-3,-6,1,-5,-6
1481271449579005,-3,-2,-3,-1,4,1,-2,0
1481271449579005,1,-2,-4,0,-1,-1,1,-1
1481271449586940,-1,-1,1,-4,-5,-3,-3,-2
1481271449586940,-1,0,-5,-5,-5,-6,0,-7
1481271449604006,2,2,-2,-3,-6,-2,1,1
1481271449604006,4,2,0,2,-2,-2,-3,3
1481271449604944,-1,-1,5,3,5,-1,0,1
1481271449604944,2,4,-1,2,5,-4,2,2
1481271449618447,5,1,-4,2,0,-1,4,2
1481271449618447,-5,-4,1,-4,-2,-5,4,-6
1481271449632460,-3,-1,0,3,3,6,-1,0
1481271449632460,-1,-10,4,-8,3,3,-1,6
1481271449639535,0,-2,0,-3,-10,-1,-7,-5
1481271449639535,-1,0,3,-1,-8,0,-3,-7
1481271449646538,-1,-4,-5,-4,-2,-4,3,2
1481271449646538,1,2,-2,-3,-6,0,-7,-1
1481271449670593,-2,0,-1,-5,6,3,-2,-1
1481271449670593,6,-5,-5,-1,1,-1,7,6
1481271449670593,5,2,-3,1,1,1,1,0
1481271449670593,-2,-4,-1,2,-4,-3,0,0
1481271449678516,-2,-1,-3,2,-6,1,0,5
1481271449678516,-1,1,0,-5,-4,-4,-2,-4
1481271449684525,-5,2,-3,3,-2,-6,-5,-2
1481271449684525,0,-2,-4,2,-4,-1,-4,-5
1481271449707465,4,-7,3,1,1,-5,-3,2
1481271449707465,-5,6,0,-2,-5,0,-7,-4
1481271449708461,-5,0,-2,0,-2,0,2,2
1481271449708461,6,2,-1,-6,-8,2,5,-2
1481271449723019,3,2,-3,1,3,3,-3,4
1481271449723019,-2,1,3,9,2,-1,-2,-3
1481271449724042,4,-2,-2,2,0,-1,-2,1
1481271449724042,2,-1,-2,5,2,3,3,1
1481271449738180,-7,0,1,-5,-7,-1,-2,-9
1481271449738180,0,-3,-6,-3,0,-3,-7,0
1481271449744113,3,-3,-2,-5,-1,-3,3,2
1481271449744113,-5,-2,-2,2,-2,-1,0,1
1481271449759113,-4,0,-2,-1,3,-1,-5,-7
1481271449759113,1,1,0,0,-1,-1,4,5
1481271449775118,3,-3,0,-5,2,-1,-1,-1
1481271449775118,-4,-5,-1,-7,-2,1,-6,-3
1481271449782123,0,-1,1,-1,-3,-1,-5,1
1481271449782123,6,0,-4,5,2,1,2,4
1481271449783116,-5,3,1,2,-2,0,1,0
1481271449783116,1,3,2,-2,-6,-7,-1,0
1481271449814641,3,-3,-5,1,-2,-2,6,7
1481271449814641,-3,-5,1,1,4,-3,-2,2
1481271449815638,-7,-3,2,-4,-3,-2,-7,-10
1481271449815638,5,6,4,2,2,2,1,-5
1481271449819643,-1,-3,-1,-4,0,-2,-1,-1
1481271449819643,-7,-7,-5,-5,-3,-1,-3,-5
1481271449827142,1,2,-3,-6,-3,-2,3,2
1481271449827142,1,0,2,-4,-2,1,2,5
1481271449843668,0,-4,-5,-1,4,2,6,1
1481271449843668,0,0,-4,-1,1,1,2,0
1481271449844651,3,-1,0,1,1,5,2,3
1481271449844651,-2,1,3,-2,-8,-3,2,0
1481271449858651,-4,0,1,-2,0,3,0,-5
1481271449858651,0,-2,0,-7,-5,-2,-1,-1
1481271449864649,2,1,-1,-5,-7,0,-2,-7
1481271449864649,-3,-6,-2,0,3,-5,-8,-6
1481271449880651,-4,0,0,-5,-2,-2,0,-5
1481271449880651,-3,0,0,-10,0,1,3,-1
1481271449886731,-2,1,1,1,0,-1,5,1
1481271449886731,1,-2,-6,3,1,4,3,2
1481271449909657,3,4,1,2,-1,0,2,5
1481271449909657,1,6,2,4,4,-1,0,-5
1481271449910664,-6,-3,6,2,-4,-2,-1,-2
1481271449910664,-2,-6,-3,-2,1,-4,0,1
1481271449918664,-3,-1,2,-1,3,1,-2,-1
1481271449918664,-2,-3,3,-3,-4,-4,-5,-5
1481271449924669,1,-5,0,-2,-4,-5,-3,3
1481271449924669,-4,-3,-4,-1,1,0,-2,3
1481271449947277,0,2,3,1,-6,-4,-3,-1
1481271449947277,2,2,-1,-2,-9,-3,-2,-3
1481271449948204,3,-1,-3,-1,2,0,2,-2
1481271449948204,-4,1,4,-5,-2,-3,-4,-6
1481271449962268,0,2,0,2,-3,0,0,1
1481271449962268,0,3,1,2,-13,3,-1,7
1481271449969282,2,0,1,-1,0,3,6,4
1481271449969282,-1,-5,0,-7,-5,-3,3,-3
1481271449986334,0,-2,-1,-1,4,3,1,6
1481271449986334,-2,-9,-3,-4,-4,1,-2,-3
1481271449987203,-4,0,1,-1,-4,-1,-9,-10
1481271449987203,0,-3,-4,-3,-4,-2,-1,1
1481271449999285,0,-2,-2,4,4,2,7,7
1481271449999285,-7,-4,-8,-5,-1,1,-5,0
1481271450015216,1,-3,-3,-4,-1,0,-3,-1
1481271450015216,1,1,1,4,-2,1,4,3
1481271450022299,0,-2,-4,4,0,-2,0,0
1481271450022299,2,0,-5,1,7,-1,-2,-3
1481271450029801,4,-2,-5,0,3,6,7,0
1481271450029801,-1,0,-3,-6,1,1,0,-5
1481271450038704,-5,-4,1,-7,-5,-4,-6,-9
1481271450038704,-5,-6,4,-1,0,0,-4,-3
1481271450052813,2,-2,4,0,-3,-3,1,2
1481271450052813,-4,-4,-1,3,-3,4,1,-5
1481271450059763,2,1,0,1,-2,0,-2,-3
1481271450059763,4,-3,1,-2,-3,3,4,8
1481271450066790,1,1,-3,7,2,-1,3,-1
1481271450066790,-7,-1,-1,2,1,-2,-5,-4
1481271450091703,3,4,-5,-2,-6,-3,3,2
1481271450091703,1,0,-2,2,4,-7,0,-3
1481271450092736,-11,-1,-4,-5,-8,-5,-8,-8
1481271450092736,-3,-3,-3,-1,-6,1,-5,1
1481271450104786,2,-1,0,0,2,-5,3,1
1481271450104786,-1,-2,0,1,-6,2,1,-3
1481271450105706,1,-5,-1,-2,-6,-2,1,2
1481271450105706,5,0,5,-5,-1,-7,3,-1
1481271450121300,0,-7,6,-4,-6,0,-4,-5
1481271450121300,-4,4,3,-2,-9,-7,-2,0
1481271450127300,1,-1,3,1,3,-1,1,4
1481271450127300,-2,4,1,-2,3,-6,0,0
1481271450141806,-7,-5,-4,0,-1,2,0,-9
1481271450141806,-2,-7,-5,3,10,0,3,7
1481271450157814,-1,-2,1,-4,-2,4,2,1
1481271450157814,-4,1,0,1,2,3,4,-3
1481271450164897,-4,-9,-5,-5,-5,-1,2,2
1481271450164897,2,-2,0,0,-1,-3,4,2
1481271450165806,-5,-2,0,-2,-1,0,0,-4
1481271450165806,0,1,3,-2,-1,0,0,1
1481271450195807,9,4,1,2,5,3,3,7
1481271450195807,-4,1,1,5,4,1,1,0
1481271450196808,-1,3,-1,-1,0,2,-4,-5
1481271450196808,2,6,-5,0,1,0,10,6
1481271450201810,1,-3,-6,1,-1,0,-1,2
1481271450201810,-4,0,2,-1,-1,1,1,-6
1481271450209823,0,2,-2,3,-3,-7,-3,-2
1481271450209823,1,-4,1,1,-2,-2,-4,2
1481271450226818,-5,-6,0,-8,-6,-2,-3,-6
1481271450226818,2,1,-2,-4,1,-1,-1,-5
1481271450227818,-1,4,-1,1,6,1,5,11
1481271450227818,4,-2,0,2,6,6,-4,-1
1481271450263828,-4,5,-1,4,0,-1,-2,-2
1481271450263828,5,-2,1,0,1,3,7,6
1481271450264828,0,-2,0,-2,-4,-5,0,1
1481271450264828,-2,-1,-1,-7,-5,-4,-8,-7
1481271450265830,1,0,-3,-1,3,-4,-2,3
1481271450265830,2,1,-4,-3,-2,-2,-5,5
1481271450268833,-1,-3,-5,-4,-2,-4,-6,-7
1481271450268833,-4,0,-2,0,-4,-2,1,-5
1481271450292895,4,-4,-1,-2,-1,2,2,3
1481271450292895,-1,0,-1,0,-9,4,-4,-3
1481271450293895,-4,-2,2,-6,-2,-3,1,-1
1481271450293895,7,0,0,3,-2,1,2,6
1481271450300830,-3,4,1,-4,1,-3,1,-5
1481271450300830,-5,-3,-1,-2,4,0,-3,-3
1481271450306835,-2,0,-2,5,2,2,1,3
1481271450306835,0,-1,0,4,6,0,5,4
1481271450330551,-4,1,3,-2,-3,-7,-8,-6
1481271450330551,-4,-1,-4,-5,3,2,-2,-6
1481271450330551,2,5,0,-4,-3,-1,3,0
1481271450330551,-5,-3,2,-5,-4,-3,-10,-8
1481271450344532,-4,-6,-3,-4,-3,1,2,0
1481271450344532,4,2,-1,0,1,3,3,2
1481271450376514,0,-6,-2,0,2,1,-4,3
1481271450376514,-8,1,-5,0,3,2,-4,-3
1481271450378516,3,1,2,1,-2,3,7,4
1481271450378516,1,-1,5,5,0,-5,-2,-4
1481271450379515,1,0,4,1,0,-1,-5,0
1481271450379515,2,-4,-2,1,-3,0,2,0
1481271450383518,1,-3,-1,0,1,3,-3,-1
1481271450383518,-6,-6,-2,-7,-8,-3,-10,-4
1481271450397516,-3,3,1,1,-8,-2,-4,-4
1481271450397516,-1,-2,-1,-4,0,0,2,-1
1481271450405580,1,1,-2,0,-4,3,-3,2
1481271450405580,-5,-1,-1,5,5,1,3,-1
1481271450405580,5,3,-6,-3,0,5,2,5
1481271450405580,2,1,1,-1,1,-2,-1,5
1481271450421030,2,2,2,4,2,2,-4,0
1481271450421030,-5,-3,-2,-3,-4,-4,6,3
1481271450435043,2,-5,5,3,-6,1,2,0
1481271450435043,-9,-5,1,-1,-2,-1,-3,-9
1481271450442040,-9,-5,1,-6,1,-1,-6,-2
1481271450442040,4,-3,-6,-2,-8,1,2,2
1481271450449108,-1,-7,0,-7,0,-4,-4,-6
1481271450449108,-2,-4,-7,-13,-13,-1,-3,-4
1481271450468041,4,-2,1,1,-4,-4,4,1
1481271450468041,6,1,0,-6,-1,-3,-5,4
1481271450469104,-9,0,-6,0,2,-2,-7,-7
1481271450469104,3,1,0,4,5,5,-1,5
1481271450481041,-3,2,0,3,1,-2,1,4
1481271450481041,-3,-1,0,1,-1,-6,2,-4
1481271450487041,-3,1,-1,-3,0,3,-2,0
1481271450487041,10,9,0,4,3,-2,0,4
1481271450503106,-3,-3,-2,-1,-3,-4,0,-3
1481271450503106,-2,-2,3,1,-8,6,-1,-3
1481271450509083,4,-5,-7,-1,-1,-2,2,0
1481271450509083,-1,-1,1,1,2,-2,0,2
1481271450525623,-9,3,1,-3,-3,-5,-4,-9
1481271450525623,0,-1,-4,-3,-8,-1,2,4
1481271450526089,2,-3,5,1,-2,-1,2,-3
1481271450526089,1,-9,4,2,2,2,0,0
1481271450541150,0,-1,-3,-1,-4,-4,-3,-1
1481271450541150,2,4,-2,-3,-1,3,2,8
1481271450547103,-1,4,-4,5,-3,-3,-6,0
1481271450547103,-7,-6,-5,-7,-8,-6,-2,-7
1481271450570169,-3,-2,-6,-5,5,-6,-1,0
1481271450570169,-1,1,-2,5,3,-3,0,-1
1481271450571104,-4,-7,-5,-3,8,3,-2,-3
1481271450571104,0,1,0,1,0,4,6,0
1481271450587116,3,-1,5,2,-3,3,4,3
1481271450587116,2,0,3,2,2,0,2,-7
1481271450587116,-5,4,0,4,4,6,7,0
1481271450587116,3,-9,-3,2,4,1,3,4
1481271450609103,0,-3,-2,2,-2,-2,1,-4
1481271450609103,0,1,-4,-1,-1,-1,-4,-4
1481271450610103,-2,-2,-3,-8,-5,-3,-1,-5
1481271450610103,-1,2,1,-3,0,-3,2,0
1481271450622116,2,3,3,0,-7,-2,-5,-4
1481271450622116,3,-1,1,-3,4,-5,-1,4
1481271450646857,6,-3,0,-5,-4,-2,2,4
1481271450646857,1,0,-2,-2,-6,6,-3,-2
1481271450648789,0,-3,-2,1,3,-1,-1,-2
1481271450648789,-2,-1,-1,0,3,5,5,4
1481271450649790,-5,1,0,1,-3,-4,1,-1
1481271450649790,-3,1,-3,-1,-2,-5,-5,-1
1481271450660789,2,-2,-3,-2,1,3,2,8
1481271450660789,0,0,3,-2,-2,-1,-3,-3
1481271450674790,-4,-3,-3,-3,-3,-3,-5,-1
1481271450674790,0,-2,-1,-1,1,5,1,0
1481271450681859,0,-3,0,-4,-2,-1,-2,2
1481271450681859,-8,-3,-4,-1,-6,-2,-3,-7
1481271450689832,3,1,3,0,-5,-4,-3,-5
1481271450689832,1,-4,-3,-1,1,-2,3,8
1481271450712862,-1,3,0,0,2,3,-3,-2
1481271450712862,-3,-6,3,-2,0,-1,-3,-5
1481271450713941,3,-1,2,2,0,1,13,2
1481271450713941,1,2,2,2,-5,0,-6,-3
1481271450720941,-4,-4,-3,-1,-5,-3,-1,-3
1481271450720941,1,1,-5,-4,-9,-3,-2,-1
1481271450726941,-4,0,1,-5,-3,0,1,2
1481271450726941,-6,-1,0,-7,-12,-4,-2,-7
1481271450744514,-3,0,0,-4,-2,-3,-6,-6
1481271450744514,5,4,2,-3,-3,1,1,4
1481271450749490,-2,0,4,0,-3,1,-1,1
1481271450749490,-6,0,2,0,3,-4,0,5
1481271450764530,6,3,0,4,6,1,-3,2
1481271450764530,2,-9,2,3,1,2,0,-1
1481271450765575,-4,-5,0,-4,-3,-2,-6,-6
1481271450765575,-4,-3,0,-1,-1,2,-4,0
1481271450780586,3,-4,-1,3,-2,5,-1,1
1481271450780586,2,-2,0,2,3,-2,-5,-4
1481271450787463,-2,-4,-1,-3,-4,0,1,3
1481271450787463,5,3,1,2,-4,0,2,0
1481271450801533,0,0,-1,-3,-2,-1,-1,-1
1481271450801533,7,3,0,-3,-5,-4,-6,0
1481271450818019,0,-1,0,4,0,0,-3,6
1481271450818019,0,-3,-3,1,4,-2,1,-2
1481271450825528,-3,-4,-3,0,-2,1,-2,-3
1481271450825528,-1,-3,3,-2,-5,-7,-3,-2
1481271450825997,5,2,-2,2,-2,-1,-4,1
1481271450825997,-5,3,0,-5,-9,3,-4,-3
1481271450848508,-7,0,-1,-5,-6,0,-1,1
1481271450848508,1,0,2,1,-8,-1,6,-2
1481271450849506,4,-3,-1,1,4,-3,1,-3
1481271450849506,-3,2,-3,-2,-5,-5,-6,-6
1481271450861506,8,-7,-2,-7,-2,-2,-1,-3
1481271450861506,-5,-3,-4,-6,0,-1,2,5
1481271450869508,-5,-5,0,-3,2,0,1,-1
1481271450869508,4,-5,1,5,-3,3,5,3
1481271450885543,5,4,1,1,0,-4,1,2
1481271450885543,2,0,-2,2,-1,-4,-5,-3
1481271450891512,-1,-1,-5,-3,-5,-3,-4,-3
1481271450891512,2,0,2,0,-2,0,5,1
1481271450924036,-2,-1,-3,-4,-3,1,0,-5
1481271450924036,-7,-5,-3,-3,-3,1,-9,1
1481271450924532,-1,3,-6,1,1,-3,-4,-2
1481271450924532,-1,-3,-3,-5,-3,-5,-1,-4
1481271450926531,-1,3,-3,3,5,0,-4,-4
1481271450926531,1,3,0,1,4,0,6,6
1481271450929034,-1,-3,1,1,-1,1,3,-2
1481271450929034,2,-2,-2,-1,4,-4,-2,2
1481271450952287,-6,0,6,-3,-4,2,-2,-4
1481271450952287,0,-4,-1,-2,-2,1,-3,4
1481271450953207,0,0,1,-6,1,4,1,-2
1481271450953207,-3,1,-1,-1,2,-3,1,-7
1481271450960285,-5,-4,-1,-3,-1,-1,8,1
1481271450960285,0,-5,0,-3,1,1,0,-7
1481271450967245,-2,0,-1,3,8,1,0,-6
1481271450967245,-1,1,-1,-1,-1,2,4,4
1481271450990215,-5,0,-1,-4,-1,-1,-2,3
1481271450990215,0,1,-2,1,3,1,-1,0
1481271450990215,3,-2,1,2,-4,0,-4,3
1481271450990215,5,0,0,2,1,1,-2,0
1481271451004300,-3,-1,2,-2,-3,1,-2,4
1481271451004300,-5,-1,-1,-2,-8,-2,-3,-3
1481271451029310,0,-1,-2,3,4,-1,-4,-2
1481271451029310,0,0,1,-4,0,-3,-5,-1
1481271451030451,-1,-1,0,1,-7,-5,-2,-3
1481271451030451,-1,2,-2,1,6,-4,-1,-5
1481271451031451,4,-2,-3,-3,-4,-2,1,3
1481271451031451,-7,-4,-5,-1,1,-1,-1,-2
1481271451041457,2,-4,-1,1,2,0,-1,-1
1481271451041457,-4,1,2,0,3,2,4,4
1481271451057462,2,6,2,-1,-6,1,1,1
1481271451057462,0,-2,-3,2,-3,-4,-4,-7
1481271451064454,3,0,-1,-2,1,-1,3,-3
1481271451064454,-1,-1,-3,-4,-1,-6,-4,-4
1481271451071508,-2,-2,-4,-6,-5,-1,-1,-8
1481271451071508,4,-3,1,-3,-9,1,0,-4
1481271451097455,-2,4,2,0,7,-2,-1,1
1481271451097455,-4,-6,-1,-6,-1,-1,-8,-5
1481271451098472,0,-3,3,0,0,2,3,5
1481271451098472,-4,-1,2,5,6,0,1,2
1481271451101460,1,0,-1,1,-5,-1,3,4
1481271451101460,-5,0,-3,-3,-6,-2,1,-4
1481271451109459,1,2,-4,0,-5,-3,-3,1
1481271451109459,2,0,3,-1,-1,3,-4,-2
1481271451125969,-3,-1,0,2,-2,0,-5,-4
1481271451125969,-9,-2,-1,-7,-12,-3,-2,-4
1481271451131710,-1,1,-3,0,7,-1,-1,-3
1481271451131710,-2,-4,-2,-3,-1,1,1,-1
1481271451147656,-2,2,3,-1,-1,-1,-2,-3
1481271451147656,11,6,3,1,-3,0,3,-1
1481271451148626,0,-1,4,-7,-3,-4,2,2
1481271451148626,-3,2,3,-2,-2,-1,-3,1
1481271451163631,0,0,1,-2,1,-3,5,1
1481271451163631,0,0,3,0,7,4,3,3
1481271451169631,-4,-4,-2,0,4,0,-5,-3
1481271451169631,-2,-3,-3,-4,2,-3,0,0
1481271451202640,-1,-3,-2,3,0,4,-5,5
1481271451202640,-1,2,-3,2,3,-2,3,-2
1481271451202640,-1,-5,-1,-2,-4,-8,0,-4
1481271451202640,3,-1,0,-2,-4,-5,5,0
1481271451207630,0,-3,-4,-3,-7,0,-2,-6
1481271451207630,-7,1,1,5,4,-3,-4,2
1481271451208628,2,-3,1,3,-2,2,1,4
1481271451208628,3,0,-1,5,1,-1,4,1
1481271451230141,-2,-3,-2,-3,-8,-6,-3,-2
1481271451230141,2,0,-1,0,-1,3,5,0
1481271451230141,1,-2,-2,-5,-2,0,-1,0
1481271451230141,-5,-1,-2,-2,2,0,-1,-2
1481271451244149,-3,-6,-6,-1,-3,-7,-3,0
1481271451244149,2,-4,-1,1,-2,2,1,5
1481271451252150,-7,-6,0,0,-8,-4,-4,-6
1481271451252150,-3,1,-1,-4,2,-1,-1,-5
1481271451269161,6,-2,2,2,5,1,4,0
1481271451269161,2,-3,-4,1,3,6,-2,4
1481271451270151,-2,-1,0,0,2,1,-2,-1
1481271451270151,6,2,1,9,1,1,3,4
1481271451282234,-2,1,1,-1,-2,2,1,3
1481271451282234,1,-2,2,-1,0,-6,0,-6
1481271451297233,-3,-1,0,-1,1,2,2,-4
1481271451297233,-4,-1,-1,-4,-2,-3,0,-3
1481271451304155,-4,-7,-8,-4,3,-2,2,0
1481271451304155,-3,-2,0,-6,-9,-2,-6,-2
1481271451312157,4,2,-1,-2,2,-1,2,4
1481271451312157,2,2,-1,-5,-1,-4,-7,5
1481271451335843,-1,2,1,-5,-1,-7,-2,-3
1481271451335843,2,2,0,0,-2,-1,2,3
1481271451336844,0,3,1,2,-1,-4,3,-1
1481271451336844,-5,-4,2,-5,-3,0,2,-2
1481271451341840,5,1,0,-1,-1,-3,-2,1
1481271451341840,2,-2,-1,3,-1,-1,-5,2
1481271451349883,-5,1,-1,-5,-7,0,-6,0
1481271451349883,-1,-1,1,-5,-2,-6,-7,-6
1481271451372927,-4,3,3,2,1,1,0,-8
1481271451372927,1,-2,1,-10,-3,-4,-1,0
1481271451372927,-4,5,3,2,-1,3,-5,1
1481271451372927,1,-2,-2,3,2,1,-4,2
1481271451387933,1,5,-5,1,3,1,2,7
1481271451387933,-5,1,-2,3,-2,-4,2,-1
1481271451388870,1,5,1,5,0,1,-1,3
1481271451388870,8,-2,1,3,-2,2,6,3
1481271451403883,-1,-3,-3,-2,-1,2,-1,-1
1481271451403883,-7,-2,0,-6,-1,0,-4,-4
1481271451409854,0,-3,-5,-7,-1,-5,-3,-6
1481271451409854,-7,-3,-8,-5,-2,0,-2,0
1481271451424367,-7,-3,4,-7,-6,-4,-3,-6
1481271451424367,2,2,-1,0,4,0,-3,3
1481271451439998,4,-2,1,4,0,-4,4,2
1481271451439998,-3,-1,1,-2,-6,1,-5,1
1481271451448059,6,-2,-2,3,4,6,-1,0
1481271451448059,0,-3,-3,-1,-1,1,1,-4
1481271451448059,-6,-4,-1,-1,1,-2,3,0
1481271451448059,-1,1,-2,-5,-1,-1,-1,-5
1481271451478036,-2,1,0,-5,-3,0,-5,-2
1481271451478036,-6,-4,-3,-4,-3,-1,-7,-5
1481271451478929,2,-5,-1,0,-5,-3,2,0
1481271451478929,-3,-3,3,-2,-3,0,-1,-1
1481271451485930,0,-6,1,-3,-6,3,2,2
1481271451485930,-4,0,4,2,-5,2,2,-2
1481271451491940,-2,2,2,3,4,-2,1,-4
1481271451491940,2,-1,1,2,3,0,-2,0
1481271451508932,2,2,1,3,2,-1,-1,5
1481271451508932,-1,-4,-1,2,7,1,3,-2
1481271451509932,-1,1,1,-5,0,2,-1,-2
1481271451509932,-7,1,-1,-2,-5,-3,-4,-3
1481271451522051,-4,-5,-6,-3,-4,-8,1,-2
1481271451522051,3,2,-4,-3,3,-1,1,1
1481271451529552,-1,-3,-6,-6,-3,1,-5,-2
1481271451529552,2,4,-2,-3,-4,-1,-3,-7
1481271451545584,-2,-2,1,-3,-5,-4,-3,-5
1481271451545584,2,1,-1,-3,-3,-5,-2,5
1481271451551570,-6,-5,-5,-5,-2,-5,-6,-1
1481271451551570,-1,3,2,3,-5,-3,1,0
1481271451575564,3,5,-1,4,1,1,2,-3
1481271451575564,-3,0,-4,-2,0,-2,3,3
1481271451576560,-5,-3,-1,-1,-8,4,-1,-1
1481271451576560,-1,-4,-1,3,-2,-3,2,-1
1481271451581642,-6,-4,1,-5,-8,2,-2,-6
1481271451581642,-4,-8,-2,-5,-5,-1,0,-6
1481271451589564,1,0,0,-3,-1,1,-6,-7
1481271451589564,0,-5,-2,3,0,0,0,3
1481271451612566,1,-9,-1,1,-8,-10,-2,2
1481271451612566,-2,8,1,3,-3,3,-2,-3
1481271451613566,5,4,2,2,4,0,3,5
1481271451613566,1,4,-4,1,1,-1,0,3
1481271451627576,-5,1,-1,-1,4,0,-6,-1
1481271451627576,1,-1,1,4,1,2,-3,-2
1481271451650190,1,-1,2,-1,-9,-3,0,0
1481271451650190,-6,0,-1,-3,0,3,3,-1
1481271451660138,-4,1,-3,-3,-4,-1,-1,-9
1481271451660138,3,-1,1,-1,-1,-2,0,4
1481271451660138,3,3,4,-6,-3,-2,-3,4
1481271451660138,0,2,-1,-1,2,-3,-2,-6
1481271451664114,4,-3,-4,-4,-2,-1,1,4
1481271451664114,8,-4,-2,-4,-5,0,6,4
1481271451680192,-4,0,-1,-3,1,-2,1,1
1481271451680192,2,2,-3,-1,-3,2,0,6
1481271451687192,3,4,-2,-2,-3,0,4,3
1481271451687192,-5,-2,-1,-3,-5,-1,-3,-4
1481271451688179,-6,-4,-4,-4,-6,1,-9,-5
1481271451688179,-1,-5,-4,-3,-5,-3,1,0
1481271451702113,-4,3,2,-1,-4,-2,-2,1
1481271451702113,-3,-3,-4,2,-3,-7,-2,-6
1481271451717640,2,-1,-2,0,2,-3,1,0
1481271451717640,0,1,0,-4,0,1,-2,2
1481271451724637,1,1,5,3,-8,1,-1,-6
1481271451724637,-3,-1,-4,-1,-1,-2,-3,-1
1481271451757186,4,0,-4,0,2,4,1,0
1481271451757186,-3,-8,-2,-1,-3,-3,-1,-3
1481271451758178,-8,-1,4,1,5,1,-2,-1
1481271451758178,1,-2,2,-2,-8,2,-1,-2
1481271451759175,-7,-1,-2,-1,-4,-5,0,-2
1481271451759175,-2,2,4,-3,-2,3,-8,-6
1481271451763175,1,-1,-4,-2,2,0,-1,0
1481271451763175,-2,-1,1,-9,-2,-3,-2,-4
1481271451769210,-1,3,-1,1,4,1,-1,0
1481271451769210,-1,2,5,5,7,-5,-1,-1
1481271451794177,-3,-3,-4,-2,3,-1,-1,3
1481271451794177,-4,-1,0,-4,2,-1,0,2
1481271451795212,2,3,0,7,2,-1,5,-1
1481271451795212,5,-2,-7,-4,-1,1,1,1
1481271451807186,-1,-4,1,-7,-2,0,-4,1
1481271451807186,-7,0,0,3,-7,0,-5,-3
1481271451823314,-3,-2,-2,-5,-7,1,-3,-6
1481271451823314,-2,-7,-2,-5,-5,-5,0,-1
1481271451824782,-2,-2,0,0,-3,-2,-1,-7
1481271451824782,3,7,-4,-2,8,-1,-1,0
1481271451829330,2,-2,1,-3,1,-5,2,2
1481271451829330,-3,-1,2,-2,-2,2,-4,4
1481271451852896,3,7,4,3,4,-2,-2,-3
1481271451852896,-2,-3,-1,-3,-3,0,4,0
1481271451852896,-1,-7,-2,0,-2,0,0,-2
1481271451852896,-1,-2,-1,-3,-5,1,-5,-5
1481271451866796,-2,-3,3,2,-1,-1,5,4
1481271451866796,0,-3,-2,-6,1,-3,-6,-5
1481271451874792,-5,-2,0,-5,-2,-4,-8,-4
1481271451874792,0,1,-2,1,0,-2,7,3
1481271451889865,1,2,-6,-2,-1,-3,2,2
1481271451889865,-4,-3,2,3,-1,-1,-4,-1
1481271451890798,8,5,-1,1,2,5,2,4
1481271451890798,4,-1,-3,0,-4,1,3,2
1481271451903875,-1,-5,-4,-1,-4,-7,-2,-4
1481271451903875,-1,-1,1,3,5,-1,-2,1
1481271451911890,-3,-1,-2,-1,-5,-2,1,2
1481271451911890,-1,-1,2,1,-3,0,-4,-4
1481271451928873,-5,-2,-2,-4,-1,3,-4,-7
1481271451928873,5,-1,-1,-1,-13,-1,1,-1
1481271451934896,-2,-4,-2,-1,-3,-6,-1,-8
1481271451934896,-5,-1,-4,2,-3,-2,-3,-4
1481271451941822,2,-4,0,-2,-3,-2,-1,2
1481271451941822,3,-3,-2,-5,-7,0,2,2
1481271451957836,-3,2,0,3,1,1,-1,5
1481271451957836,2,-2,-2,0,3,1,-1,7
1481271451964952,5,2,-6,-2,5,0,-1,6
1481271451964952,-7,-6,-6,-2,5,-1,0,-1
1481271451971914,-5,-2,-3,0,6,-2,-4,-4
1481271451971914,-2,-2,-3,-5,-1,-2,-2,-9
1481271451995900,-4,-3,-7,0,-5,-3,-4,0
1481271451995900,2,1,-1,1,1,-3,-5,-2
1481271451996888,-1,-1,2,-2,-7,0,-4,0
1481271451996888,0,2,-5,-2,-5,-5,3,1
1481271452009822,3,4,0,3,-3,3,-1,-4
1481271452009822,0,2,-2,3,4,-6,2,4
1481271452033451,1,-1,-7,-2,9,-3,1,4
1481271452033451,-1,1,2,2,5,-3,-1,2
1481271452035449,-3,-6,8,-1,4,8,-5,-1
1481271452035449,-3,-3,4,4,-11,-6,-2,-2
1481271452036449,-1,-4,2,2,-13,-5,1,-3
1481271452036449,-3,-2,5,-7,1,4,-1,-6
1481271452046452,1,5,-3,-5,4,-5,-2,4
1481271452046452,-1,1,-5,-1,1,1,0,0
1481271452062531,1,-1,-5,-1,-3,-6,-4,1
1481271452062531,4,10,-6,1,1,-4,-1,4
1481271452070584,1,1,-1,-2,-4,-3,5,0
1481271452070584,-6,2,1,-5,-5,0,-1,-2
1481271452071492,5,4,4,5,0,5,3,1
1481271452071492,3,-4,1,-9,-5,-2,-3,3
1481271452084454,-4,-1,2,3,-5,3,1,-2
1481271452084454,-2,-4,3,2,6,3,-5,-1
1481271452100541,-4,-6,-1,-1,0,-3,4,7
1481271452100541,-5,-4,2,-2,-1,-4,-4,-1
1481271452107478,-3,4,0,-1,-9,-8,0,-7
1481271452107478,1,-1,-3,-5,-1,-2,-2,-1
1481271452115587,2,0,-1,-3,6,1,-2,0
1481271452115587,-7,-3,-4,4,7,1,3,0
1481271452130631,1,-1,2,-6,-1,-4,-1,0
1481271452130631,7,-1,-2,4,7,1,7,4
1481271452131145,-1,-4,1,-3,5,-1,1,4
1481271452131145,-2,-4,1,1,-9,3,-8,-7
1481271452144165,2,-5,-5,-2,-4,2,-1,3
1481271452144165,-5,0,-1,-6,-5,0,-2,-4
1481271452152220,-6,0,-2,1,2,3,-2,-7
1481271452152220,1,3,0,-7,-3,-7,-5,-4
1481271452168210,-1,-3,-6,-1,-2,-4,-3,2
1481271452168210,-3,4,-1,-3,2,-1,-2,-2
1481271452174151,-1,1,-2,1,1,0,0,-3
1481271452174151,1,1,0,2,2,5,6,7
1481271452190143,2,-2,-1,-1,7,-3,-3,-2
1481271452190143,0,3,2,2,5,0,-5,-2
1481271452191144,2,1,0,-3,-5,-3,0,0
1481271452191144,3,-4,-1,0,-2,1,0,-1
1481271452206142,-6,-3,7,-6,-7,-5,-2,-4
1481271452206142,-2,-5,-5,-4,-3,-2,0,-3
1481271452212142,2,-3,2,-5,-3,3,1,0
1481271452212142,-3,2,2,-5,-3,-6,-6,-5
1481271452234709,-1,-1,-2,2,1,4,2,-1
1481271452234709,5,0,1,-1,-2,0,-2,1
1481271452235709,-1,0,-1,0,-3,-3,-1,-2
1481271452235709,1,0,-1,-7,-4,0,-4,-3
1481271452249778,3,-2,-1,-1,2,0,3,3
1481271452249778,-1,1,4,-4,-6,-2,0,1
1481271452250724,-2,-1,0,-3,-2,-4,-5,-4
1481271452250724,-1,1,2,4,4,-1,7,-1
1481271452272778,-5,-1,-5,1,2,-2,-3,2
1481271452272778,-3,-2,0,-3,2,-2,-5,-4
1481271452273749,2,-5,-6,-6,-3,0,-2,-2
1481271452273749,-3,-5,0,1,2,-5,1,2
1481271452286715,1,-4,-3,-2,-1,-1,-7,-3
1481271452286715,3,-2,1,3,-6,0,2,-3
1481271452311781,5,3,-1,1,2,4,4,5
1481271452311781,0,5,1,2,0,-1,0,-2
1481271452312748,2,1,-1,4,2,-3,1,-2
1481271452312748,-3,5,-2,5,3,-1,7,4
1481271452313713,0,1,3,-4,-1,-2,-2,-4
1481271452313713,-7,0,-5,4,2,1,-7,1
1481271452324789,0,-2,6,-1,-4,-3,2,-5
1481271452324789,2,-3,-1,3,2,-2,0,3
1481271452339763,-7,1,-2,-5,-7,-5,-11,-9
1481271452339763,1,-1,-1,-1,-1,-2,0,-5
1481271452346788,2,2,-1,1,-2,-1,3,8
1481271452346788,-5,5,-1,-1,-6,-1,0,0
1481271452354898,0,2,0,2,-1,-1,0,-4
1481271452354898,5,1,-3,-3,1,1,-1,0
1481271452378778,1,4,-2,-1,4,-4,-2,-4
1481271452378778,-7,-6,-1,-8,-5,-2,-6,-4
1481271452378778,-6,-4,1,-1,0,-2,1,2
1481271452378778,3,-7,-4,3,-1,3,6,-4
1481271452384831,-2,-6,1,-2,-4,5,0,-3
1481271452384831,-3,-8,-4,-5,-4,-2,-3,2
1481271452391769,2,1,2,4,5,4,-2,5
1481271452391769,-3,3,2,0,1,-3,-3,4
1481271452408835,-2,4,3,-5,-4,-2,-2,-7
1481271452408835,4,-1,0,1,1,5,3,2
1481271452414863,2,3,-5,3,4,-3,5,1
1481271452414863,-2,2,6,1,3,-2,0,-2
1481271452430316,-2,0,-5,-1,2,-3,-2,0
1481271452430316,0,2,3,-1,0,-3,-1,-6
1481271452431328,-9,-5,-7,-3,0,-3,-2,-8
1481271452431328,-2,-6,-3,-2,-2,-3,0,1
1481271452446319,0,-5,-3,-2,0,-2,0,6
1481271452446319,1,-1,4,-4,-7,-1,-4,-5
1481271452452390,0,-2,3,-5,-5,0,-3,-5
1481271452452390,1,-1,-1,-1,-2,4,0,4
1481271452467389,1,1,-4,3,1,4,0,-7
1481271452467389,-6,-4,-3,4,-5,-2,-3,4
1481271452482516,2,0,0,3,7,2,2,5
1481271452482516,-2,-1,-5,0,-4,-4,0,-2
1481271452490588,-3,4,-1,0,-4,-1,-7,-2
1481271452490588,1,3,-2,0,4,-1,1,-5
1481271452491514,-6,-3,-1,-5,-3,0,-2,-6
1481271452491514,-3,-2,1,-1,3,5,-5,-6
1481271452512597,-2,-3,1,1,1,-2,0,5
1481271452512597,0,1,-1,-2,2,-3,0,2
1481271452513516,3,5,0,5,5,-1,2,5
1481271452513516,1,-7,-3,-2,3,-4,-1,2
1481271452527030,5,-1,-1,0,-1,3,1,2
1481271452527030,3,4,-3,2,-1,0,3,-1
1481271452535070,5,2,-1,-2,-1,-3,-2,-2
1481271452535070,-3,0,1,1,-1,-6,-2,-5
1481271452550148,-2,-2,-2,-7,-4,-5,-6,-1
1481271452550148,0,-4,2,2,0,-1,-1,-2
1481271452551071,-5,0,0,-3,-9,0,-3,-3
1481271452551071,3,-1,2,-1,-2,-3,-6,3
1481271452589180,-1,2,2,-2,-6,6,2,0
1481271452589180,0,-2,-1,-5,-3,1,-6,-5
1481271452590100,-2,-1,2,3,0,-1,2,6
1481271452590100,1,3,0,-4,-6,-4,1,0
1481271452591069,0,-4,-2,4,2,-5,-1,-6
1481271452591069,-5,1,-2,1,2,2,-2,0
1481271452594073,3,-2,-3,-2,-4,-2,2,4
1481271452594073,1,2,-2,-1,-5,-3,3,0
1481271452618667,-8,1,-4,-3,4,-3,-3,-4
1481271452618667,0,-1,-3,0,2,2,0,1
1481271452619643,-2,1,-3,-5,-6,-1,-5,-4
1481271452619643,-5,-3,-4,-3,-2,3,1,-5
1481271452624583,1,-1,-1,-2,-6,-6,-3,-3
1481271452624583,-1,1,-1,-2,-5,-5,-1,0
1481271452632205,-4,-4,-1,-1,-1,-3,-1,-5
1481271452632205,0,1,3,2,2,2,0,-4
1481271452655145,-1,1,-1,3,-2,0,1,3
1481271452655145,1,1,-1,0,0,0,-2,1
1481271452656132,-6,-1,-2,-1,-3,1,-4,-1
1481271452656132,1,-1,2,-3,-3,-2,-1,-2
1481271452670208,-3,-6,1,-3,-2,1,-1,-5
1481271452670208,-1,-4,-3,-1,3,-2,-3,-5
1481271452671125,-1,3,0,-2,-1,-1,0,-5
1481271452671125,0,3,-5,1,-1,-4,0,-3
1481271452686125,4,-2,-3,0,2,2,5,1
1481271452686125,7,-1,-2,1,-2,-5,-4,1
1481271452692140,1,2,0,6,2,1,6,4
1481271452692140,5,2,-3,2,-2,1,0,2
1481271452707130,-1,-1,-4,4,1,-1,-4,-2
1481271452707130,3,-5,-2,-1,-4,-3,2,-1
1481271452722732,2,2,0,2,-2,-4,-4,-2
1481271452722732,-2,-1,0,-4,-3,4,-7,0
1481271452730298,-5,-6,-1,-8,-7,-4,-6,-6
1481271452730298,2,-2,2,3,-4,-1,0,1
1481271452731281,-1,-4,4,2,2,0,-5,-4
1481271452731281,-6,-4,-1,1,1,-2,-1,2
1481271452745646,0,1,-2,-2,4,1,5,7
1481271452745646,-3,7,2,3,-1,-3,1,-1
1481271452759528,-3,-4,-1,-7,-3,-6,0,-8
1481271452759528,-1,3,-5,2,-1,-1,0,5
1481271452766533,1,4,1,4,3,-1,0,2
1481271452766533,-3,-1,-4,-6,-3,5,-8,-4
1481271452774535,-3,-4,-3,-3,0,4,0,-3
1481271452774535,-2,-6,-4,-5,-2,-2,2,-4
1481271452790600,1,1,1,-2,0,-4,-3,-5
1481271452790600,1,1,1,-1,0,-2,-8,2
1481271452797609,5,-1,-2,-3,-6,-4,-5,1
1481271452797609,2,-4,-1,-2,-2,-2,0,2
1481271452812621,-4,-2,-3,-1,1,4,-3,-1
1481271452812621,1,3,1,2,1,4,10,-1
1481271452813534,2,1,-3,2,1,-2,6,2
1481271452813534,-6,-1,-1,0,-3,0,1,-5
1481271452829065,2,6,1,-1,-4,-2,5,-5
1481271452829065,-3,-4,-1,-2,-2,-3,-5,2
1481271452834126,-3,0,1,-3,-2,-3,-10,-4
1481271452834126,-4,0,-1,1,2,2,-3,0
1481271452866083,-1,1,2,-1,-1,-3,1,3
1481271452866083,-7,-4,-1,-8,0,-4,-3,0
1481271452866083,-2,3,4,-1,-2,0,0,-10
1481271452866083,6,-2,3,-1,1,-1,3,3
1481271452873064,1,-5,4,-1,-4,1,1,-2
1481271452873064,-1,1,-2,4,-1,-1,0,-6
1481271452873064,4,4,2,0,3,2,2,8
1481271452873064,2,5,1,-1,-1,-2,-3,-2
1481271452895064,-4,1,1,-1,4,3,-6,-4
1481271452895064,-6,-4,4,-1,-1,2,-1,-7
1481271452896061,-1,-4,0,3,5,7,5,1
1481271452896061,-8,-2,0,-6,0,-2,-4,-4
1481271452909063,-3,4,-2,-2,-7,0,-6,-3
1481271452909063,4,5,-1,-2,-5,-4,7,4
1481271452917671,2,1,-1,-4,-3,-3,-8,-2
1481271452917671,4,-1,2,-1,-4,0,-3,-1
1481271452932825,1,-5,-4,-6,-4,0,2,4
1481271452932825,1,0,-4,-2,-3,4,3,1
1481271452933757,-9,-2,-1,-2,-4,-5,3,1
1481271452933757,-5,0,-1,-1,-7,-4,1,-7
1481271452946802,1,-5,-2,4,4,-5,2,-2
1481271452946802,2,-1,-2,-4,2,-3,-5,-3
1481271452962816,-4,-2,-5,1,3,-1,-1,2
1481271452962816,1,-1,-2,-2,-4,-1,-2,2
1481271452969791,3,0,-1,0,-1,-5,-3,-3
1481271452969791,-8,-5,-5,0,3,1,-1,-5
1481271452977804,4,-2,-1,-4,-2,3,0,2
1481271452977804,6,-3,-1,1,-4,-4,-1,2
1481271453000725,1,1,-2,0,-1,-1,-2,2
1481271453000725,-2,4,1,0,1,-4,2,3
1481271453001743,-2,-4,-2,-3,-5,-5,-2,-3
1481271453001743,-4,1,-5,-2,3,-2,1,-1
1481271453006765,-4,-4,3,-5,-6,-2,-1,-2
1481271453006765,3,-6,3,-6,-3,-1,-1,3
1481271453014753,0,-2,-3,0,-1,-1,-6,-3
1481271453014753,4,0,6,-1,1,1,-7,-4
1481271453038344,-5,3,-2,-1,-5,-7,-1,3
1481271453038344,4,0,-3,2,1,-2,-1,1
1481271453039316,0,-3,0,3,-1,0,1,0
1481271453039316,1,3,0,-2,1,-2,1,-1
1481271453052395,9,1,-7,-6,-2,4,1,3
1481271453052395,-5,-2,-3,-2,1,0,0,-1
1481271453053317,0,1,2,0,-4,0,-2,-7
1481271453053317,-3,-4,-5,1,-1,1,-1,-3
1481271453068319,-2,-2,1,4,2,-2,-3,3
1481271453068319,-2,4,4,3,0,-1,-1,-4
1481271453074315,-3,-5,2,-4,-3,1,4,-1
1481271453074315,-3,-3,1,0,3,0,-3,4
1481271453089411,-5,2,1,0,2,1,1,-8
1481271453089411,0,2,0,2,-1,-3,0,0
1481271453105396,4,-2,0,-2,-6,-7,0,4
1481271453105396,-4,0,-4,2,4,2,1,0
1481271453112394,-2,-3,-2,-1,0,0,2,2
1481271453112394,-1,-2,-3,2,4,3,-6,4
1481271453113321,-2,0,-4,-1,2,2,-1,-2
1481271453113321,-3,-1,0,-1,-3,0,4,-9
1481271453142872,3,-5,-1,1,2,1,-1,0
1481271453142872,2,-4,-1,0,-3,-4,4,-5
1481271453143882,-6,2,-5,3,8,-2,-5,-1
1481271453143882,-2,0,-1,-3,-4,3,-2,4
1481271453149920,4,-1,-1,-1,-2,-2,-3,-1
1481271453149920,-4,-1,0,-3,-5,-1,0,-2
1481271453157875,-1,3,3,0,-4,-2,3,1
1481271453157875,1,0,-2,1,1,3,0,-3
1481271453172870,-3,1,3,-1,-1,2,2,3
1481271453172870,-4,-5,0,-2,0,2,0,5
1481271453173937,6,2,5,2,-3,-1,2,-1
1481271453173937,-2,0,1,-4,1,-2,-2,-2
1481271453186953,-3,-8,1,-5,-6,-3,-1,-3
1481271453186953,0,-4,-2,-2,-8,-1,0,-2
1481271453193876,-1,0,-8,-4,-4,4,4,6
1481271453193876,2,1,4,3,-5,0,-5,0
1481271453210873,-2,-2,-4,1,-3,-3,0,1
1481271453210873,5,1,-4,4,2,3,5,4
1481271453217924,1,-5,-3,-2,4,-1,-2,1
1481271453217924,-2,0,2,-3,1,-7,-3,2
1481271453240400,-4,-5,-2,-8,-2,0,-3,0
1481271453240400,-4,-1,2,-3,6,0,-4,0
1481271453241396,-7,-5,-2,-3,2,2,-9,-5
1481271453241396,-4,3,-1,0,3,0,5,-3
1481271453246397,2,0,-2,0,2,5,1,-1
1481271453246397,-4,1,3,-3,-3,2,-1,-6
1481271453254401,-2,0,3,2,0,-4,4,3
1481271453254401,2,0,1,-1,-5,-4,0,3
1481271453278403,0,9,0,2,-6,-2,-2,6
1481271453278403,-1,0,0,-2,2,-3,-3,-9
1481271453279462,0,0,-1,-3,0,3,3,0
1481271453279462,2,2,-1,-2,-4,0,1,2
1481271453300491,0,-4,-2,3,2,3,-6,-5
1481271453300491,-2,-1,-4,-2,0,-2,-1,3
1481271453301399,0,-2,6,-3,0,-4,-1,-3
1481271453301399,-7,-3,-1,1,2,0,-2,3
1481271453315514,-2,-1,-1,-1,8,3,3,-1
1481271453315514,4,-1,-2,-3,1,-5,-5,6
1481271453315514,1,-2,-3,-1,0,1,-2,0
1481271453315514,1,-3,0,-2,-1,2,0,0
1481271453329413,3,3,0,-3,-4,-1,-1,4
1481271453329413,-4,-6,0,-4,0,-3,1,-2
1481271453345485,-5,1,-5,-1,2,1,3,-2
1481271453345485,5,2,1,0,2,5,-2,0
1481271453352419,-1,1,2,0,-1,-3,1,-1
1481271453352419,-4,2,1,-5,-6,-1,-6,1
1481271453353421,-2,-3,-5,-3,-6,-1,-4,-4
1481271453353421,1,1,-5,0,-6,-1,-3,0
1481271453366461,0,1,2,0,1,-3,-3,-6
1481271453366461,-3,-2,0,3,-4,-1,6,3
1481271453382514,6,1,0,0,2,-5,-3,6
1481271453382514,0,-2,-5,-5,4,-4,-2,0
1481271453389424,-4,-2,-2,-4,2,-2,-2,-2
1481271453389424,4,-1,-4,1,-1,4,3,-2
1481271453397514,-3,3,-2,-1,2,0,0,1
1481271453397514,-2,-2,-3,-1,-1,-2,-4,-3
1481271453420935,-8,0,1,-2,1,-1,-5,-2
1481271453420935,-4,1,1,0,-5,-3,-2,-3
1481271453421436,-2,0,-4,-3,-2,0,-5,-1
1481271453421436,-6,0,-1,2,-5,-1,0,-3
1481271453426936,5,5,-1,0,-4,1,6,2
1481271453426936,0,-1,-3,0,1,5,0,-4
1481271453434446,-1,-2,-4,0,-2,0,-2,-7
1481271453434446,3,3,4,1,0,-4,0,5
1481271453451484,4,-1,1,1,-4,-1,-4,-1
1481271453451484,-3,-1,0,0,0,-4,-6,-7
1481271453457445,-2,-1,4,-4,-8,-6,1,3
1481271453457445,-2,-4,-1,-3,2,-1,2,5
1481271453472537,-6,1,0,-3,-5,-6,-1,0
1481271453472537,0,-4,-3,0,-3,0,-1,-3
1481271453473447,-1,0,-3,-3,-1,0,2,3
1481271453473447,-2,-7,1,-2,2,-2,-4,-9
1481271453489450,-8,-3,-1,-2,4,4,-3,-2
1481271453489450,1,-4,1,-3,-9,-6,2,3
1481271453494537,0,3,-2,2,-7,1,-3,-1
1481271453494537,1,4,-1,-4,1,1,-3,-3
