timestamp,x,y,z
1481271437822202,-2.375,-11,8.1875
1481271437842710,-0.0625,-9.25,6.9375
1481271437882713,1.8125,-8.75,-1.5625
1481271437887712,1.5625,-5.125,-3.5
1481271437909715,-0.125,3.6875,4.25
1481271437918297,-11.9375,7.4375,1.4375
1481271437947740,-3.5625,5.1875,-1.125
1481271437978743,8.125,-0.6875,-4.0625
1481271437980744,0.8125,-0.3125,-0.6875
1481271437999784,-11.3125,-1.1875,2.1875
1481271438021756,-3.4375,-0.75,1.0625
1481271438039769,7.4375,-2.125,-0.125
1481271438059804,2.6875,-1.3125,-0.125
1481271438082918,-3.375,-1.1875,-1.375
1481271438097855,-4.1875,1.625,-1
1481271438122306,2.4375,3.4375,1.25
1481271438158796,-2.75,4.4375,2.375
1481271438160802,-1.0625,-0.1875,-0.4375
1481271438187942,4.0625,-2.8125,-3.75
1481271438201798,5.0625,-2.375,-0.4375
1481271438225810,-8.125,-2.1875,2.3125
1481271438239675,-3.5,-0.6875,0.375
1481271438261640,4.75,-1.75,-3.25
1481271438277648,-0.6875,-0.625,-0.4375
1481271438299678,1.1875,-0.875,2.25
1481271438329659,-2.875,-1.75,-0.25
1481271438337662,-6.75,-3.25,-1.125
1481271438361664,2.0625,-2.625,-0.0625
1481271438381664,6.375,-1.0625,1.8125
1481271438399663,-2.0625,-0.25,2.5625
1481271438435685,8.125,4.5,-14.4375
1481271438441767,13.75,-22.5,-39.25
1481271438465695,2.0625,0.875,-30.0625
1481271438478686,-10,-8.5,-32.125
1481271438502685,-6.375,-7.875,-18.4375
1481271438518693,8.75,-3,-0.75
1481271438540704,7.8125,-12.375,-4.1875
1481271438569710,-13.5,-4.9375,2.1875
1481271438577708,-32.625,14.9375,25.5625
1481271438608709,3.5,15.4375,22.9375
1481271438621719,-5.75,8.25,5.5
1481271438639727,-25.5625,-1.125,-8.1875
1481271438660727,3.875,-2.1875,0.4375
1481271438681729,3.4375,4.25,6
1481271438714238,-1.4375,-7.0625,-0.4375
1481271438720741,7.1875,-4.1875,2.625
1481271438744747,3.4375,2.1875,5.6875
1481271438757815,-3.0625,-2.9375,0
1481271438781822,-6.1875,0.4375,-3.875
1481271438809769,-22.8125,5.625,-1.1875
1481271438818307,-14.75,6,-4.4375
1481271438848577,-4.4375,8.0625,2.25
1481271438861577,-9.8125,7.125,7.8125
1481271438885580,-19.3125,1.625,4.125
1481271438900580,-1.5,12.0625,-1.625
1481271438922088,5.4375,11.375,-1.625
1481271438938102,-8.8125,11.6875,-4.625
1481271438960107,-5.4375,3.625,-4.0625
1481271438991107,-5.5,1.6875,0.6875
1481271438998105,-4.1875,2.0625,5.3125
1481271439022132,7.1875,9.4375,2.25
1481271439042215,4.5,-2,-5.5625
1481271439059147,-14.125,2.0625,-8.375
1481271439088144,-10.1875,-0.4375,-4.5
1481271439102179,6.5,-0.5,1.75
1481271439125653,0.375,1.875,0.0625
1481271439146161,-1.6875,0.9375,-1.375
1481271439164164,0.25,0.75,-4.625
1481271439178164,-1,1.5,0.5625
1481271439200166,1.4375,0.875,1.3125
1481271439230178,1.5625,0.375,-0.5625
1481271439238179,-7.125,0.125,1.6875
1481271439269180,-6.5,2.1875,-1.5
1481271439282235,3.0625,0,-3
1481271439299186,3.375,-1.875,-2.875
1481271439320692,-2.0625,-0.375,-1.1875
1481271439341694,-5,1.1875,0.625
1481271439365698,-5.25,1.4375,0.25
1481271439380699,3.25,2,1.3125
1481271439404702,9.625,1.0625,-0.1875
1481271439425705,0.5,-0.9375,-2.625
1481271439442207,-0.875,-0.375,0.5
1481271439471711,7.625,-0.125,0.8125
1481271439478212,5,-1.6875,-1.9375
1481271439508216,4,-5.0625,-2.5
1481271439523252,4.8125,-0.1875,-0.1875
1481271439547254,-2.3125,0.5,2.125
1481271439560722,1.5,2.0625,0.5625
1481271439583259,4.875,0.625,0.5
1481271439599728,3.375,-3.1875,-3.1875
1481271439620729,-5.875,-0.375,-2.8125
1481271439643296,-8.5,-0.25,3.75
1481271439659734,2.9375,0.5625,0.5
1481271439680737,5.3125,0.375,-0.5625
1481271439703304,0.4375,0.75,0
1481271439724306,-2.375,-0.9375,-1.4375
1481271439740745,-3.375,-1.75,1.0625
1481271439763307,0,-0.0625,3.3125
1481271439784776,1.375,0.1875,1.4375
1481271439808307,1.75,9.4375,0
1481271439823307,1.5,-3.875,0.75
1481271439844306,1.25,2.0625,1.125
1481271439860760,-3.3125,-3.25,-0.4375
1481271439883307,0.625,0.125,0.0625
1481271439904309,1.875,-1.3125,-1
1481271439920767,2.0625,-0.6875,0.5
1481271439943771,1.5,0.375,0.25
1481271439964284,-3,0.125,-0.875
1481271439980775,-4.625,-2.4375,-0.625
1481271440003301,4.3125,-0.8125,-0.5625
1481271440024781,3.5,-0.3125,0.4375
1481271440040783,-0.0625,-0.6875,-0.6875
1481271440063306,1.4375,-0.125,-0.4375
1481271440084306,0.125,-0.875,-2.25
1481271440100791,-2,-0.125,0.125
1481271440123793,0.3125,-2.5,0.0625
1481271440144831,1.5,-1.75,-0.1875
1481271440160799,1.4375,-0.75,-0.6875
1481271440183802,1.25,-0.3125,-0.6875
1481271440204306,-5.8125,-0.75,-1.125
1481271440220806,-3.9375,-1.4375,0.9375
1481271440243308,4.625,-1.75,-0.125
1481271440264312,4.0625,-1.4375,-0.75
1481271440280814,-3.125,-0.625,-1.1875
1481271440302852,-3.75,-1.25,-0.5625
1481271440324825,0.5,-1.125,0.0625
1481271440339827,1.0625,-0.3125,-0.4375
1481271440363828,0.25,-4.4375,-2.8125
1481271440384831,0.375,-1.75,-0.375
1481271440399831,-3.0625,-1.125,0.5
1481271440421848,-0.5625,0.75,-0.25
1481271440444849,2.8125,-0.125,0.4375
1481271440459851,3.25,-1.3125,0.25
1481271440482916,1.625,-0.5625,1.0625
1481271440505439,0,-0.5625,-2.0625
1481271440520374,0.375,-1.3125,-1.125
1481271440542943,-1.375,-0.4375,1.1875
1481271440564884,-2.0625,-0.4375,0.9375
1481271440580880,0.3125,-0.4375,0.75
1481271440602946,1.25,-1.5625,-3.6875
1481271440624900,-2.25,-1.6875,-4.375
1481271440640926,1.6875,-1.9375,-1.125
1481271440662408,2.8125,-0.125,0.375
1481271440684805,2.0625,-2,-0.3125
1481271440700809,0.625,1.3125,-0.4375
1481271440721989,0.4375,-1.375,-1.875
1481271440744910,0.1875,-0.8125,-0.3125
1481271440760913,-1.375,-0.8125,1.75
1481271440782979,0.8125,-0.6875,-0.8125
1481271440804995,0.125,0.6875,-0.4375
1481271440829014,-1,0.3125,0
1481271440842013,1.5,-0.8125,-1.4375
1481271440865016,0.5625,-1.625,-2.75
1481271440881031,0.8125,-2.125,-0.375
1481271440902019,2.4375,-0.625,1.6875
1481271440925034,0.1875,0.6875,1.0625
1481271440941070,1.9375,0.0625,0.75
1481271440962039,3.125,1.5625,-0.1875
1481271440985039,0.6875,-2.1875,-1.9375
1481271441000041,-1,-1.3125,-1.875
1481271441022063,-2.625,-0.6875,0
1481271441045068,-3.5625,0.5625,0.75
1481271441061069,3,0.125,0.1875
1481271441082067,2.625,0.6875,0.125
1481271441105615,-1.75,0.125,-0.0625
1481271441121148,0.625,-1.5,-0.4375
1481271441142250,-0.0625,-0.5625,-1.0625
1481271441165159,-1.625,-1.4375,1.625
1481271441195162,0.125,-0.9375,1.0625
1481271441202163,-1.5625,0.75,-0.1875
1481271441225177,-1.9375,1.1875,-1.6875
1481271441247178,-1.3125,0.625,0.5
1481271441262179,0.25,0.5625,2.3125
1481271441285182,-0.8125,-0.9375,1.0625
1481271441307688,0.625,-0.3125,-1.625
1481271441322197,2.1875,-0.3125,-2.3125
1481271441345201,-2,-0.3125,-0.0625
1481271441369200,-3.625,-0.625,1.75
1481271441382203,0.8125,-1.6875,-0.4375
1481271441405286,0.5,-0.25,-0.9375
1481271441427310,-0.0625,-1.3125,-1.375
1481271441442311,-1.4375,1.4375,0.375
1481271441465313,-2.6875,0.5,-0.4375
1481271441487314,-1.25,-0.25,0
1481271441504314,2.4375,-1.25,0.625
1481271441525351,1.1875,-0.6875,-0.375
1481271441555354,-1.125,-0.1875,-1.1875
1481271441564354,-1.0625,-0.1875,-1.3125
1481271441586354,0,-0.125,-0.75
1481271441607992,-3.3125,0.5625,-0.375
1481271441624531,-1.1875,0.9375,-0.8125
1481271441644477,1.625,-0.875,-1.8125
1481271441667484,1.625,-1.0625,-2
1481271441691482,-3.875,-2.125,-1.25
1481271441704483,0.1875,-1.625,1.25
1481271441728559,1.5625,0.1875,0
1481271441767534,-0.1875,0.3125,-0.5625
1481271441772590,4.9375,-0.4375,-0.75
1481271441794500,-1,-1.625,0.25
1481271441804564,-2.5625,-0.1875,1
1481271441832609,1.4375,1,0.8125
1481271441847516,1.9375,-1,0.4375
1481271441864519,2,0.125,-1.5625
1481271441884611,-0.125,-0.5625,0
1481271441907525,-1.75,0.1875,1
1481271441923661,0.625,-0.8125,0.75
1481271441945555,3.5,0,-0.875
1481271441968604,0.375,0.25,-0.8125
1481271441983696,-1.4375,0.25,-1.6875
1481271442006630,-2.75,-1.4375,0
1481271442045171,0.5625,-1.0625,0.875
1481271442050159,3.5,-0.625,0.875
1481271442072205,2.625,0.75,-2.0625
1481271442087161,-2.125,1.1875,-0.5
1481271442111671,-3.8125,-0.4375,0.8125
1481271442124680,1.9375,0.5,0.4375
1481271442147683,1.375,-2.5,-0.0625
1481271442163680,-0.3125,0.1875,-0.5
1481271442184778,-1,0.3125,0.8125
1481271442215196,1.125,1.5625,0.5
1481271442224310,2.6875,-0.75,-1.125
1481271442246307,2.125,-0.9375,-0.1875
1481271442267392,-0.25,-0.1875,-0.3125
1481271442284310,-0.375,-0.5625,-0.625
1481271442322426,1.4375,0.25,-1.1875
1481271442327424,1.125,-0.3125,0.375
1481271442351426,1.625,-0.5625,-1.25
1481271442365561,2.375,-1.0625,0
1481271442389498,3.375,-2.125,-2.3125
1481271442403430,9.6875,-15.5625,-9.8125
1481271442424768,-2.75,-23.5,-3.1875
1481271442454757,-25.3125,34.6875,-28.625
1481271442462680,30.8125,-20.75,-6.3125
1481271442486678,-13.25,19.375,26.125
1481271442507712,-0.625,-4.125,2.0625
1481271442523828,8.3125,-6.125,-9.375
1481271442546754,-11.75,4.375,4.9375
1481271442567759,-1.0625,2.5625,2.1875
1481271442582819,4,9.1875,-1.3125
1481271442606757,-3.375,-6.0625,-8.0625
1481271442627808,-4.875,-2.125,1
1481271442643870,3.75,-4,4.1875
1481271442666874,7.25,-4.5625,5.4375
1481271442687870,-2.25,-16.25,-5.625
1481271442703877,-19.4375,-20.375,2.8125
1481271442726934,-27.1875,-8.875,-2.3125
1481271442747930,48.125,62.6875,-13.75
1481271442762914,9.125,7.125,-6.3125
1481271442786930,1.5,4.625,4.5625
1481271442808026,-20.8125,-3.5,1.125
1481271442823099,-4.5,6.375,-3.375
1481271442847053,-0.375,-3.0625,-1.6875
1481271442868067,-9.125,9.3125,-18.1875
1481271442883037,-13.75,13,-4.625
1481271442906099,-1.875,-3.9375,5.375
1481271442927556,2,-10.375,6.25
1481271442949556,2.375,-4.25,2.125
1481271442966563,-8.9375,-4.0625,-1.8125
1481271442987642,-5.25,-11.0625,1.6875
1481271443003560,-13.125,-0.875,-2.25
1481271443026200,-15.25,2.375,-6.25
1481271443047200,-1.5625,-1.25,-7.1875
1481271443063200,4.9375,-1.125,-1.6875
1481271443086269,-3.3125,-11.125,-1.3125
1481271443107739,0.5,0.4375,2.5
1481271443123811,-0.5625,11.5625,-4.0625
1481271443146753,20.5625,-19,19.875
1481271443167755,-17.5625,-22.6875,15
1481271443189834,20.875,3.875,18.1875
1481271443206754,6.5,-9.4375,7.625
1481271443227773,-2.25,-7.125,7.9375
1481271443249774,-3.4375,-0.9375,2.5625
1481271443265782,11.125,0.1875,-1
1481271443287880,19.875,5.3125,-6.3125
1481271443310289,26.375,11.125,-4.6875
1481271443325800,-2,-8.6875,8.5
1481271443347803,-4.8125,-3.5625,4.375
1481271443369872,-2.625,-8.125,3.875
1481271443385807,7.875,-2.25,-4.625
1481271443409322,0.5625,4.25,-10.375
1481271443429862,-3.5625,6.875,-21.625
1481271443445847,-1.8125,4,-9.1875
1481271443468891,3.9375,-5.625,-2.9375
1481271443489918,2.9375,-15.125,-1.0625
1481271443505848,12.3125,-5.25,-1.8125
1481271443529391,-5.8125,-6.4375,1.375
1481271443550492,-9.1875,-5.8125,-3.4375
1481271443565491,17.25,-4.5625,-4.5625
1481271443589426,10.5,-0.875,-1.875
1481271443610473,-3.5,-11.5,-4.9375
1481271443634495,-12,-9.375,-3
1481271443649506,-2.3125,-1.5625,-1.625
1481271443671495,-4.375,5.1875,0.5
1481271443685572,1,5.625,2.75
1481271443710589,-13.75,3.625,1.5625
1481271443737213,0.4375,0.375,-10.0625
1481271443746106,-5.25,-1.1875,-4.75
1481271443777127,-6.9375,2.0625,-0.0625
1481271443790185,-3,11.8125,-0.5
1481271443806174,1.1875,13.5,3.3125
1481271443828819,4.9375,3.0625,0.1875
1481271443849827,-5,-1.625,3.875
1481271443865824,-17.25,1,3.1875
1481271443888818,-11.8125,9.375,1
1481271443911928,-2.875,3.9375,-1
1481271443925220,-9.6875,-3.375,5
1481271443949137,-5.375,-11.0625,5.9375
1481271443978133,0.8125,-11.8125,2.75
1481271443987137,-2.6875,-8.25,3.3125
1481271444016719,2.3125,-1.875,0.3125
1481271444029728,0.5,4.125,-3.6875
1481271444054730,-3.375,-5.1875,-5.4375
1481271444068731,-11.4375,-3.6875,2
1481271444089747,-6.625,-4.9375,2.6875
1481271444105803,3.4375,-6.0625,-2.875
1481271444128622,3.8125,-4.625,-2.5
1481271444157688,1.8125,-4.25,-2.125
1481271444165689,-0.0625,-1.6875,-2.5625
1481271444189591,-11.0625,11.375,4.5
1481271444210095,-7.25,23.875,14.1875
1481271444226107,5.5625,10.6875,1.125
1481271444265131,10.5625,-5.25,-2.6875
1481271444270129,7.25,-14.25,-4
1481271444294110,-0.125,-12.9375,1.4375
1481271444308630,4.5625,-1.125,0.9375
1481271444331702,4.8125,2.3125,3.1875
1481271444345703,6,-3.625,3.25
1481271444367705,0.9375,-11.25,3
1481271444398707,-1.125,-13.3125,1.25
1481271444405705,3.75,-6.875,-1.9375
1481271444436264,-5.1875,-2.3125,0.5
1481271444451312,-3.25,-0.625,0.375
1481271444466308,2.4375,-4.5625,-1.3125
1481271444488337,5,-7.375,-1.375
1481271444511885,6.4375,-6.8125,-1.125
1481271444541334,16.25,-4.625,0.6875
1481271444548331,11.125,0.9375,3.1875
1481271444572338,0.5,6.125,7.375
1481271444585334,2.0625,7.9375,9.3125
1481271444608336,0.5,16.3125,4.8125
1481271444639363,-12.375,9.5,-10.75
1481271444652357,24.625,4.4375,-11.5
1481271444676360,-9.6875,8.9375,-17.125
1481271444691361,0.875,20.875,-6.9375
1481271444714477,2.4375,17.125,-4.4375
1481271444728456,-3.125,14.6875,-1.375
1481271444751454,2.25,3.6875,-2.6875
1481271444780524,-5.25,-6.875,-0.875
1481271444788455,-4.6875,-6.5625,1.3125
1481271444820468,-0.875,3.5625,-1.3125
1481271444832548,-6.8125,7.6875,-0.1875
1481271444848479,-7.3125,13.75,-1.4375
1481271444871519,-1.25,12.375,1.5625
1481271444892485,0,6.3125,-3.75
1481271444915530,3.625,9,-2.3125
1481271444931314,2.5,25.6875,-1.4375
1481271444954257,-0.625,58.125,3.8125
1481271444968219,3.9375,85.4375,2.875
1481271444991313,6.3125,94.25,2.3125
1481271445020301,-2,77.375,1.4375
1481271445028350,-6.8125,43.8125,-2.25
1481271445059350,-10.1875,50.75,3.375
1481271445097384,-2.8125,81.125,16.25
1481271445099353,5.9375,74.0625,11.5
1481271445111884,1.5,65.1875,3.125
1481271445132547,-2.4375,75.4375,-0.375
1481271445148466,2.75,73.75,2.125
1481271445170556,7.25,89.9375,4.5625
1481271445193470,3.1875,143.563,-11.25
1481271445208469,5.625,156.313,4.125
1481271445230897,15.25,135.375,6.9375
1481271445252956,17.0625,130.813,4.5625
1481271445267931,12.1875,144.125,2.9375
1481271445298901,9.1875,133.625,-2.75
1481271445313917,-2.75,126.875,-12.1875
1481271445336469,-2.875,143.5,-6.3125
1481271445374582,-8.125,155.875,2.125
1481271445377513,-3.5,151.688,-4.4375
1481271445388473,-11.1875,149.188,-7.6875
1481271445411040,-5.75,143.438,-1.6875
1481271445441881,7.4375,151.563,9.375
1481271445447821,7.8125,151.188,-0.125
1481271445470843,4,130.125,-9.5625
1481271445493818,-8.5625,126.125,9.5625
1481271445507952,-25.375,130.688,9.875
1481271445531085,-18.625,130.563,-6.6875
1481271445554087,-2.25,146.375,-12.125
1481271445577153,2.5,138.125,-8.4375
1481271445591090,-4.9375,113.438,0.375
1481271445614103,7,83.5,21.9375
1481271445653232,-9.0625,107.313,17.125
1481271445657169,-8,104.688,4.75
1481271445681212,11.3125,108.688,-3.0625
1481271445695174,2.375,97.9375,8.5
1481271445719180,6.125,82.0625,12.3125
1481271445733694,-7.4375,89.25,13.9375
1481271445754691,-0.75,69.6875,-0.625
1481271445770742,1.1875,72,-4.9375
1481271445793693,-6.1875,64.25,-0.25
1481271445822708,-4,58.3125,7.1875
1481271445830717,-13.625,79,14.25
1481271445853783,-14.1875,79.0625,4.9375
1481271445874716,-16.9375,78.5625,-2
1481271445890721,-8.3125,50.75,-11.375
1481271445929778,-19.8125,30.75,-9.75
1481271445934809,-20.6875,22.5,-14.0625
1481271445958753,-24.3125,10.6875,-10.625
1481271445973746,-13.625,12.9375,-1.125
1481271445996748,1.625,8.5,-0.8125
1481271446011254,4.0625,-10,-8.5
1481271446034456,9.5625,-22.8125,-17.25
1481271446062446,2.75,-26.8125,-11.375
1481271446071481,-5.0625,-19.8125,-9.4375
1481271446101418,2.25,-4.8125,-6.1875
1481271446115515,2.3125,4.6875,-3.5625
1481271446130949,-2.1875,0.375,1.5
1481271446153043,-8.3125,-23.75,4.25
1481271446174945,-8.6875,-33.6875,0.5625
1481271446204951,5.3125,-17.1875,-0.875
1481271446213450,-0.9375,-7.9375,-0.4375
1481271446237082,0.6875,-1.875,-3.75
1481271446250962,4.875,-2.1875,-3.8125
1481271446273004,-2.25,-6.9375,-3.75
1481271446303966,-3.3125,-15.125,0.4375
1481271446310976,1.6875,-7.0625,3.6875
1481271446342030,1.9375,8.5,2.1875
1481271446356088,5.0625,5.0625,0.125
1481271446378988,0.5,-7.1875,3.0625
1481271446393061,2.75,-13.4375,-4.3125
1481271446416504,2.75,-6.5625,-5.1875
1481271446430957,-0.6875,9.4375,2.25
1481271446453081,3.4375,8.375,2.25
1481271446485023,-2.5,4,3.125
1481271446490959,-0.8125,-3.5,3.25
1481271446513973,2.6875,-8.25,5.3125
1481271446536062,0.6875,-7.25,4
1481271446550985,1.0625,-5,4
1481271446581118,-3.375,-6.0625,3
1481271446596055,-0.375,-5.625,-0.9375
1481271446619500,6.3125,-0.3125,0.25
1481271446640116,8.5,-3.8125,-0.8125
1481271446657065,7,-6.125,3.625
1481271446671015,5.9375,-1.1875,4.9375
1481271446694015,4.0625,-1.125,0.25
1481271446724595,1.8125,-4.125,1.0625
1481271446731036,3.125,-3,2.125
1481271446762074,-0.3125,-4.875,2.1875
1481271446776103,4.3125,-4.5,0.25
1481271446798047,5.125,-7,-0.4375
1481271446813554,2.125,-3.75,3.3125
1481271446836126,4.125,1.375,1.875
1481271446859057,-1.0625,4.9375,0.1875
1481271446873101,-4,4,-2.125
1481271446897123,-3.5,-4.25,-5.5625
1481271446918074,2.4375,-1.5625,-2
1481271446933896,1.6875,-2.375,-2.75
1481271446956985,0.75,2.75,3.75
1481271446977967,-0.8125,2.25,1.875
1481271447001943,-2.625,-2.875,-0.875
1481271447016953,2.3125,-5,-1.75
1481271447039915,2.3125,2.5625,-0.625
1481271447053851,2.875,2.0625,-4.1875
1481271447075850,-0.3125,2.125,-3.9375
1481271447104852,1.625,0.375,0.1875
1481271447113364,0,-2.8125,2.3125
1481271447136475,-1.375,-5.25,1.125
1481271447157475,0.25,2,1.6875
1481271447173473,4.3125,9.5,3.875
1481271447195513,0.9375,3.125,1.4375
1481271447218991,0.8125,-10.375,4.875
1481271447241000,-3.3125,-13.4375,-4.875
1481271447255997,1.4375,2.0625,-1.9375
1481271447279004,3.125,6.75,-1.9375
1481271447318013,-0.5,-1.875,-1
1481271447323100,1.25,-2.9375,-2
1481271447346054,1.6875,-5,-6.3125
1481271447353025,-0.5,-2.375,-6.5625
1481271447384025,-3.125,1.125,-2.875
1481271447399022,0.5,-3.6875,2.0625
1481271447414036,0.6875,-4.6875,0.9375
1481271447435794,1.625,-7.0625,-1.4375
1481271447458796,-0.625,-5,2.625
1481271447472805,-2.25,-5.625,0.8125
1481271447495798,-3,-7.8125,-3.0625
1481271447519315,0.6875,-7.9375,-5.5
1481271447533093,0.9375,-8.25,0.625
1481271447556091,4.25,-17.875,-0.875
1481271447579092,4.5,-25.75,-5.5625
1481271447600095,-0.375,-34.375,-11.875
1481271447616109,-4.625,-45.1875,-12
1481271447638717,-5.125,-53,-11
1481271447661620,-1.125,-57.9375,-4.0625
1481271447675621,-4.0625,-73.25,-1
1481271447698645,-10.0625,-94.3125,2.3125
1481271447720133,-12.0625,-99.6875,2.8125
1481271447735643,-3.6875,-90.5,4.125
1481271447758646,5.3125,-78.1875,5.375
1481271447779645,14.625,-65.4375,6.3125
1481271447795647,12.25,-62.125,1.5625
1481271447819181,9.75,-61.75,-4
1481271447839749,14.75,-68.5625,-2.125
1481271447855691,12.5625,-71.25,1.5625
1481271447878820,-6.625,-84.9375,11.5625
1481271447899695,-2.3125,-82,-0.5
1481271447916235,16.75,-75.5,-0.125
1481271447939494,1.25,-74.0625,1.3125
1481271447959500,4.5,-85.9375,-3.875
1481271447975561,2.5625,-106.313,1.4375
1481271447998505,-7.5,-116.5,10.4375
1481271448020548,-3,-111.625,8.6875
1481271448036020,7.75,-104.25,6.25
1481271448058027,8.3125,-95.5,2.125
1481271448080106,5.75,-104.063,-1.625
1481271448096023,7.75,-102.5,0.25
1481271448118538,12.1875,-103.625,4.375
1481271448140119,8.75,-93.0625,-6.125
1481271448156045,1.9375,-82.75,-19.0625
1481271448169136,-14.3125,-92.25,-8.3125
1481271448192046,10.75,-109.875,-2
1481271448215571,21.9375,-114.313,-1
1481271448229068,-3.5625,-109.5,-15.75
1481271448252070,-15.875,-94.3125,-12.625
1481271448275074,-17.3125,-90.125,-2
1481271448289072,-27.875,-91.4375,-0.375
1481271448312630,-20.5625,-87.5625,5.8125
1481271448334656,3.8125,-88.0625,12.9375
1481271448349656,5.125,-73.4375,11.375
1481271448371738,5.5625,-66.0625,9.875
1481271448394659,0.25,-78.5625,2.9375
1481271448410658,-0.3125,-90.25,-1.875
1481271448431958,-14.125,-90.8125,-4.6875
1481271448454880,-19.3125,-77.375,2.1875
1481271448477910,-4.4375,-76.4375,2.5
1481271448491887,-9.3125,-91.1875,-3.25
1481271448515472,-8.25,-86.75,-4.5625
1481271448537432,-7.75,-79.6875,-3.4375
1481271448552420,7.1875,-84.1875,-5.125
1481271448583479,20.9375,-89,-10.5625
1481271448597418,20.25,-88.1875,-10.375
1481271448611933,10.5,-72.125,-5.3125
1481271448634062,9.0625,-48.625,-10.4375
1481271448658104,-25.3125,-30.0625,-3.3125
1481271448672154,-30.3125,-10.0625,-5.6875
1481271448694065,-32,-14.1875,-18.5625
1481271448717675,9.125,-16.75,-21.1875
1481271448731716,14.625,-88,7.6875
1481271448754843,-19.3125,-111.875,-10.125
1481271448777708,-6.875,-57.75,-4
1481271448791755,-6.5625,-31.4375,3.3125
1481271448814838,-7.3125,-40.5,0.3125
1481271448837868,-2.9375,-50,0.375
1481271448860799,8.0625,-55.75,0.6875
1481271448874787,12,-63.375,0
1481271448897866,5.4375,-33.25,-9.875
1481271448912313,-7.5625,-28.75,-0.6875
1481271448934491,19,-24.875,1.4375
1481271448965492,20,-13.875,-0.75
1481271448971489,-5.875,13.6875,-0.4375
1481271448994494,-16.6875,20.1875,-1.3125
1481271449018082,16.0625,14.5625,-3.1875
1481271449032056,9.75,3.5625,0.6875
1481271449054037,4.6875,-0.125,2.4375
1481271449077039,3.5625,-6.125,2.8125
1481271449092036,0.4375,-1.4375,5.875
1481271449114573,8.5625,-7.4375,2.75
1481271449138677,5.5,-7.1875,-2.125
1481271449151612,7.0625,5.625,-0.5625
1481271449174676,0.9375,3.5,0.25
1481271449197643,-10.125,-0.8125,0.5625
1481271449211641,2.75,-0.9375,1
1481271449234025,5.0625,-4.375,1.75
1481271449258075,8.625,-5.75,0.875
1481271449272028,-5.0625,-1.875,4.375
1481271449294031,-1.5625,1.6875,-1.0625
1481271449318065,5.3125,-2.4375,-0.875
1481271449332049,3.3125,-5.875,1.4375
1481271449354051,-4.875,-6.875,-3.25
1481271449377055,-8.375,-0.5625,-3.25
1481271449392054,-0.8125,-0.6875,-3.8125
1481271449416137,3.0625,-4,-0.875
1481271449437146,2.1875,-5.5,0.4375
1481271449452228,-2.8125,-8.9375,-0.875
1481271449474155,-3.25,-13.4375,2.125
1481271449497231,-1.3125,-18.5,2.125
1481271449512318,0.9375,-18.875,1.3125
1481271449535937,3.125,-18.5625,-2.375
1481271449566037,1.625,-20.625,-2.125
1481271449572025,-3.5625,-22.25,-4.9375
1481271449603019,2,-31.375,-1.8125
1481271449618000,-1.1875,-41.4375,-1.3125
1481271449633457,-4.3125,-55.625,-2
1481271449654539,-7.6875,-52.625,-4.9375
1481271449677542,-13.3125,-63.875,-9.0625
1481271449692460,-24,-69.75,0.8125
1481271449714479,-15,-59.25,2.25
1481271449737185,-2.25,-64.25,-0.25
1481271449752198,15.8125,-79.9375,-7.3125
1481271449776111,2.125,-96.75,-6.5625
1481271449814140,9.375,-114.25,-12.0625
1481271449816638,16.4375,-101.5,-6.5
1481271449842648,10.75,-89.625,-3.6875
1481271449857654,5.8125,-94.9375,-2.0625
1481271449879717,10.875,-99.6875,-10.3125
1481271449894732,0,-107.625,-6.375
1481271449917665,-14.125,-94.5625,1.875
1481271449932336,-3.3125,-90.75,4.8125
1481271449954281,4.4375,-92.0625,-1
1481271449986334,-0.125,-98.6875,-2.4375
1481271449992208,-6,-109.125,-4.125
1481271450016252,-3.5625,-107.563,-8.5625
1481271450037779,-6.25,-100.813,4
1481271450053700,3.3125,-98.75,2.9375
1481271450090708,14.25,-101.5,-6.8125
1481271450096701,1.6875,-99.6875,-7.75
1481271450120296,7.125,-98.4375,-5.125
1481271450134858,-0.75,-102.5,-8.3125
1481271450158869,-6.375,-110.625,-7.4375
1481271450171805,-2,-100.063,-7.3125
1481271450197807,-1.0625,-90,-3.5
1481271450225822,-5.3125,-85.1875,-1.25
1481271450231827,0.375,-66.3125,2.25
1481271450265830,-7.3125,-70.625,-5
1481271450276832,-6.25,-78.1875,-2.6875
1481271450299834,-3.6875,-66.9375,0.0625
1481271450314926,3,-52.8125,-1.8125
1481271450336518,4.5,-64.4375,-0.8125
1481271450377618,-4.875,-87.4375,1.0625
1481271450382515,-2.4375,-83.0625,-0.1875
1481271450398516,2.4375,-90.6875,-11
1481271450420565,-11.75,-102.938,6.125
1481271450436044,5.5625,-98.125,12.25
1481271450467044,20.4375,-111.5,6.9375
1481271450480059,13.9375,-91.5625,2.375
1481271450503106,12.0625,-65.25,4.0625
1481271450517106,6.5625,-71.5,1.5625
1481271450540098,12.875,-62.75,0.9375
1481271450554208,14.625,-48.625,9.5
1481271450586170,8.1875,-47.375,8.125
1481271450608103,4.375,-68.25,3.75
1481271450614612,-0.4375,-73.9375,2.25
1481271450647794,12,-48.8125,-3.75
1481271450659789,4.375,-40.875,-6
1481271450675790,2.6875,-40.0625,-7.8125
1481271450696795,11.3125,-32,-13.5625
1481271450720509,3.75,-21.0625,-8.0625
1481271450743465,-0.5,-21.5,-18.625
1481271450756465,2.125,-8.625,-9.4375
1481271450779488,-0.6875,-3.5625,-7.9375
1481271450794464,-7,-4.25,-7.375
1481271450818497,-6.625,-0.625,-5.8125
1481271450848508,-2.5,-4.3125,1.25
1481271450854507,6.5625,4.25,-0.3125
1481271450885543,1.4375,5.4375,-4.375
1481271450899568,-4.8125,-0.1875,-3.25
1481271450925532,0.25,5.75,2.0625
1481271450937312,3.9375,3.8125,7.125
1481271450960285,5.8125,3.0625,-1
1481271450974215,-2.625,5.75,-6.1875
1481271450997212,-6.25,7.4375,0.6875
1481271451029310,-3.25,9.875,-1.125
1481271451034453,0.4375,4.625,-0.8125
1481271451058458,2.625,0.875,0.25
1481271451096534,0.6875,6.75,-0.125
1481271451098472,-2.875,4.1875,-7.8125
1481271451125533,-1.5,5.8125,-6.9375
1481271451139714,-3.4375,11.1875,-3.8125
1481271451162629,-1.375,3.875,-3.25
1481271451201633,-4.375,12,-2
1481271451203629,1.125,14.25,-5.4375
1481271451214629,2.8125,19.625,1.5625
1481271451237153,-1.125,16.375,3.5625
1481271451268151,0,18.9375,-1.0625
1481271451274154,3.6875,21,1.25
1481271451298152,7.3125,24.75,-1.8125
1481271451319665,0.375,25.625,0.8125
1481271451337841,-2.75,32.3125,6.8125
1481271451356846,0.625,38,3
1481271451379976,0.4375,29.4375,1.75
1481271451402875,2.5625,19.125,4.5625
1481271451417364,-0.3125,25.125,3.75
1481271451440929,0.5,39.875,1
1481271451455044,2.75,55.0625,-3.125
1481271451485009,-4.875,44.75,-6.125
1481271451507942,-14.0625,30.875,2.9375
1481271451513934,-5.4375,40.0625,12.0625
1481271451544577,9.25,61.1875,15.1875
1481271451559563,10.0625,76.875,1.3125
1481271451577560,-4.625,75.5,-8.375
1481271451596642,-11,79.8125,-2.8125
1481271451619574,-7.4375,87.0625,2.1875
1481271451659108,9.0625,108.188,1.375
1481271451661109,-0.4375,130.063,-0.125
1481271451681114,-21.625,131.688,-5
1481271451694137,-24.0625,113.938,-4.625
1481271451718639,-11,120.875,7.375
1481271451758178,8.4375,126.125,-4
1481271451762177,13.1875,104.125,-19.0625
1481271451793180,-6.75,78.4375,-2.875
1481271451799181,-10.6875,78,15.5
1481271451824310,11.75,95.3125,10.4375
1481271451836871,15.0625,101.813,-3.375
1481271451859859,12.4375,93.25,-5.625
1481271451875792,-5.75,79.375,-2.4375
1481271451896875,-15.8125,93.375,15.0625
1481271451927809,-7.375,118.75,10.625
1481271451935821,-4.25,132.188,8.375
1481271451958852,-5.875,123,-4.8125
1481271451979895,-12.375,120.25,0
1481271451996888,-0.3125,143.563,4
1481271452034451,-5.3125,173.813,11.4375
1481271452039530,18.6875,176.25,1.5625
1481271452063450,-13.3125,147.5,9
1481271452076476,-10.625,143.25,19.8125
1481271452101517,15.75,126.625,8.625
1481271452116128,-2,95.875,2.8125
1481271452137221,-17.75,81.9375,-4.1875
1481271452167221,-16,83.375,4.125
1481271452182144,-14.125,85.75,7.875
1481271452205142,-11.375,65.0625,8.0625
1481271452219650,-3.9375,61.9375,-2
1481271452241710,8.875,82.1875,-8.5625
1481271452256718,12.1875,87.125,-8.125
1481271452279713,-5.1875,82.8125,-0.1875
1481271452312748,-2.4375,92.8125,-0.75
1481271452317228,-2.0625,96.125,10.25
1481271452340765,5.75,86.25,10.8125
1481271452361766,13.8125,87.6875,14.25
1481271452379766,33.0625,87.75,19.4375
1481271452407767,27.5,66.3125,-3.1875
1481271452422328,7,52.625,-7.6875
1481271452445349,1.0625,40.625,2.875
1481271452459324,2.9375,18.4375,4.1875
1481271452483514,1.75,-1.25,3
1481271452496517,-0.3125,-5.375,-4.9375
1481271452520029,-9.0625,-1.6875,-8.5
1481271452536069,-17.875,-5.5625,-2.3125
1481271452557072,-10.9375,-6.75,2.0625
1481271452590100,-1.125,-9.125,3.75
1481271452602179,0.8125,-16.4375,3.3125
1481271452620079,-6.4375,-4.1875,1.0625
1481271452639139,-6.9375,-0.3125,4.5625
1481271452662202,4.5,-7.25,3.25
1481271452685201,4.5,-10.4375,-0.625
1481271452699152,-2.625,-6.9375,1.5
1481271452723730,-5.375,-1.6875,-0.3125
1481271452744605,-8.875,-0.375,-1.0625
1481271452760619,-8.9375,2.3125,-2.3125
1481271452790600,1.5625,3.0625,-2.25
1481271452798527,4.3125,-7.25,-1.75
1481271452828065,-2,-4.6875,-1.625
1481271452842058,-5.75,6.875,-1.375
1481271452867063,-3.0625,4.4375,-1.9375
1481271452879060,-1.875,-5.0625,-0.625
1481271452902136,-0.125,-12.125,-2.4375
1481271452918669,-3.375,-11.25,-2.1875
1481271452939727,-16.9375,-4.25,-5.3125
1481271452963724,-23.5,-0.5625,-2
1481271452978725,-27.3125,-9.375,1.5
1481271453001743,-31.4375,-16.0625,3.6875
1481271453022315,-29.5625,-14.5625,-1.9375
1481271453040313,-30.375,-8.75,2.375
1481271453067395,-28.6875,-4.8125,1
1481271453082329,-26.625,-7.0625,4.375
1481271453106324,-40,-22.75,1.8125
1481271453119899,-39.75,-15.25,1.1875
1481271453144872,-47.8125,-13.6875,-1.6875
1481271453158940,-46.625,-7.6875,-3.4375
1481271453180004,-48.5,-9.375,-1
1481271453209873,-52.1875,-2.625,-0.625
1481271453218385,-55.4375,-0.75,-0.9375
1481271453242397,-60.6875,-11.8125,-2.625
1481271453262433,-49.875,-16.3125,-8.25
1481271453279462,-58.625,-6.75,-11.0625
1481271453302401,-56.375,5.375,-5.4375
1481271453322493,-65.75,3.25,-5.875
1481271453346454,-74.25,-1.5,-9.9375
1481271453359434,-67.4375,-6.875,-0.1875
1481271453383482,-67.6875,-7.1875,-1.625
1481271453398426,-70.5,-5.6875,-10.0625
1481271453422435,-83.125,-4.625,-14.75
1481271453450539,-92.375,-3.3125,-4.1875
1481271453458447,-87.8125,3.25,5.3125
1481271453487446,-93.5,6.375,7.875
1481271453502514,-110.563,1.6875,-0.625
1481271453519954,-126.125,-3.5,-8.8125
1481271453539464,-108.813,2.8125,-0.1875
1481271453562531,-105.625,14.125,8.3125
1481271453579466,-104.25,9.3125,5.4375
1481271453599486,-119.438,-11.5,-4.625
1481271453621975,-90.375,-7.875,2.5625
1481271453638488,-93.6875,-0.6875,2.5625
1481271453659503,-105,-2.4375,0.8125
1481271453683489,-103.625,-14.9375,-0.125
1481271453698493,-91.75,-12.9375,-7.25
1481271453721113,-85.3125,-6.125,-4.8125
1481271453741645,-94.8125,-7.5625,-8.75
1481271453758646,-103.063,-11.6875,-3.5
1481271453780718,-103.188,-0.375,0.4375
1481271453801717,-96.75,4.5625,-0.3125
1481271453818666,-113.5,-1.5,4.125
1481271453840724,-108.875,0.75,9.5625
1481271453861732,-97.9375,-4.6875,10.875
1481271453878727,-101.938,-0.9375,11.9375
1481271453900798,-101.188,3.25,13.875
1481271453924842,-91.1875,3.875,10.3125
1481271453938951,-88.25,-2.75,7.875
1481271453960895,-77.75,-0.4375,10
1481271453981894,-78.4375,-3.5625,-0.1875
1481271454003976,-67.6875,-5.375,-4.3125
1481271454021477,-69.0625,-0.875,8.125
1481271454042491,-55.625,-4.625,6.25
1481271454064451,-52.6875,-9.5625,0
1481271454081494,-62.375,-7.4375,-9.375
1481271454102529,-57.8125,-1.5,-8.5625
1481271454133009,-53.6875,-7,-6.75
1481271454141199,-51.375,-6.75,-4.125
1481271454162295,-56.125,-7.8125,-14.3125
1481271454184215,-64.75,-4.5625,-8.8125
1481271454201209,-54.875,-2.5625,-10.75
1481271454222215,-55.5,-3.1875,-2
1481271454244731,-56.3125,-1.9375,7.6875
1481271454260726,-54.25,-0.9375,2.875
1481271454281732,-56.75,1.75,-2.4375
1481271454304800,-47.375,0.1875,-8.75
1481271454321238,-42.625,-2.9375,-8.8125
1481271454341751,-38.6875,-0.875,-7.25
1481271454364753,-32.9375,-1.5,-0.8125
1481271454380759,-25.1875,-3.1875,-4.25
1481271454401829,-10.75,-2.375,-2.5625
1481271454424763,2.125,-1.375,-0.1875
1481271454441528,2.25,-1.5,8
1481271454462627,5.0625,-3.8125,8.3125
1481271454484523,14.5,-3.6875,5.75
1481271454500531,11.4375,-1.4375,4.0625
1481271454522579,15.5,-1.6875,2.3125
1481271454544005,7.625,-2.5,5.5
1481271454560926,9.125,-0.5625,-0.6875
1481271454582999,3.375,2.75,0.125
1481271454605049,3.9375,-0.9375,-1.625
1481271454621010,4.1875,-0.1875,-4.9375
1481271454641519,0.4375,-0.5,-3.375
1481271454664590,4.5,1.25,1.25
1481271454681590,8.4375,0.4375,1.9375
1481271454703524,6.625,0.1875,-2.25
1481271454724541,7.8125,-1.5,-7.4375
1481271454741583,8.875,2.25,-8.8125
1481271454763549,5.875,-1.25,-8.25
1481271454784555,-2.625,1.1875,-0.25
1481271454801615,0.375,4.3125,0.1875
1481271454823577,1.25,1.125,2.4375
1481271454844119,2.4375,-2.9375,0.5625
1481271454861116,8.0625,1.3125,2.9375
1481271454883123,6.625,5.125,10.5
1481271454904219,5.3125,2.9375,12.4375
1481271454921308,11.75,-1.75,6.3125
1481271454943405,9.5,-1.0625,0.8125
1481271454967412,9.9375,-1.125,0.625
1481271454980500,9.625,1.8125,1.375
1481271455003399,6.4375,3,5.6875
1481271455024948,7.75,0.5625,2.4375
1481271455041488,9.125,-1.6875,-1.75
1481271455070558,6.3125,1.3125,0.0625
1481271455084552,10.875,1.3125,2.875
1481271455101516,9.3125,2.625,3.0625
1481271455123548,8.0625,1.25,4.875
1481271455144060,8.6875,-0.625,-0.375
1481271455161058,7.5,-0.25,2.5625
1481271455183099,11.75,-2.6875,2.25
1481271455204065,11.3125,1.625,3.625
1481271455221152,15.375,0.875,1.25
1481271455245158,15.9375,0.5,3.375
1481271455264158,15.875,-2.625,6.625
1481271455281159,20.9375,-1.125,6.0625
1481271455303232,25.25,2.4375,7.625
1481271455324670,29,1.0625,4.6875
1481271455340707,31.5,-0.25,2.875
1481271455363715,40.0625,0.5,4.1875
1481271455384792,49.0625,-0.1875,6.25
1481271455400779,56.125,1.75,6.125
1481271455423722,67.625,4.5625,3.6875
1481271455444866,69.4375,7.375,10.5
1481271455460763,86.8125,9,12.5
1481271455483834,88.8125,5.5,12.0625
1481271455504900,89.375,3.8125,10.6875
1481271455521363,103.125,0.375,11.0625
1481271455543087,121.063,-6.1875,5.3125
1481271455566070,127.875,-5.75,3.75
1481271455581071,127.063,-2.625,6.5625
1481271455605076,126.125,-2.9375,12.0625
1481271455642633,124.563,-5.125,16.3125
1481271455646607,129.438,-9.1875,2.375
1481271455670653,132.063,-11.6875,-5.9375
1481271455685637,140.75,-11.875,-6.5625
1481271455708598,135.813,-9.625,-10.8125
1481271455723608,128.5,-7.75,-8
1481271455745623,133.75,-5.9375,-3.9375
1481271455762618,133.25,-10,-9.125
1481271455783619,131,-7.3125,-5.6875
1481271455813621,131,4.0625,0.25
1481271455827137,120.125,-1.3125,-7
1481271455844646,116.125,-14.75,-10.25
1481271455865650,110.75,-10.6875,-9.25
1481271455886655,109.688,-3.375,-10.9375
1481271455918717,101.125,0.125,-4.9375
1481271455926163,100.125,2.375,2.5
1481271455949673,99.0625,2.8125,5.3125
1481271455963675,93.625,-6.5625,-1.25
1481271455987676,87.4375,-10.4375,-8.25
1481271456015680,74.1875,-14.875,-13.1875
1481271456022695,82.5,-5.75,-2.9375
1481271456052783,77.5,-9,-2.6875
1481271456067798,74.25,-13.3125,-2.5
1481271456089771,67.6875,-18.625,-6
1481271456105721,59.875,-20.9375,-11.8125
1481271456127854,55.5,-10.1875,-12.4375
1481271456142950,60.5625,-1.125,-8.0625
1481271456164865,64,-13.5625,-2.1875
1481271456196920,65.9375,-30.75,-17.1875
1481271456202933,59.5625,-28,-10
1481271456226437,50.875,-7.375,-2.6875
1481271456248018,70.1875,2.125,6.25
1481271456263948,59,-7.4375,-0.4375
1481271456293014,45.125,-10.125,-8.6875
1481271456308018,54.75,-0.6875,-6.6875
1481271456330525,47,-11.8125,-8.25
1481271456345080,44.875,-23.25,-12.125
1481271456368983,38.625,-12.6875,-4.1875
1481271456383045,35,3.9375,-1.4375
1481271456405075,45.3125,11.3125,2.5625
1481271456435504,37,5.5,7.25
1481271456442687,35.25,-5.0625,4.75
1481271456473721,24.1875,-10.625,-0.6875
1481271456487779,15,-15.1875,-10.1875
1481271456504694,6.75,-5.375,-8.3125
1481271456525199,17.875,8.6875,-5.1875
1481271456547226,-1.875,7.8125,-3.125
1481271456570212,-3.125,6.5,-0.1875
1481271456585302,-14.125,4.875,-1.5
1481271456609211,-13.0625,1.6875,-5.6875
1481271456622722,-6.875,1.5625,-5.8125
1481271456646305,-16.1875,-2.4375,-5
1481271456675332,-15.1875,-0.5,-0.125
1481271456684314,-4.5,0.125,4.375
1481271456712398,7.625,-1.875,3
1481271456751869,-6.25,1.9375,-3.875
1481271456754866,-17.875,5,-5.1875
1481271456764970,-12.8125,3.8125,-3
1481271456787953,-6.4375,1.875,2.75
1481271456803879,-0.0625,-2.1875,4.4375
1481271456825527,-2.9375,1.875,1.625
1481271456851066,-4.8125,2,-1
1481271456863999,-4.6875,-1.6875,-1
1481271456887069,6.375,-1.5625,-2.5
1481271456908068,3.9375,5.0625,0.875
1481271456924597,4.4375,15.8125,1.5625
1481271456953252,4,17.625,0.375
1481271456968270,1.8125,13.5625,-0.5
1481271456991209,1.8125,7.8125,1.25
1481271457030240,-1.8125,1.6875,-0.9375
1481271457032278,-1.125,4.6875,2
1481271457044543,6.0625,3.5625,1.9375
1481271457065611,9.4375,0.8125,1
1481271457095585,8.4375,4.125,2.1875
1481271457104568,7.25,1.125,-2.5
1481271457128142,3.1875,-1.8125,-1.75
1481271457147666,7.6875,-4.6875,2.125
1481271457163765,15.75,-0.5625,2.875
1481271457184665,10.0625,6.5625,3.75
1481271457207663,7.1875,-2.625,-0.1875
1481271457231676,8.4375,-12.25,-4.0625
1481271457245189,14.5,-6.4375,-1.8125
1481271457269189,20.875,-2.9375,-2.75
1481271457283192,29.75,8.25,-4.6875
1481271457305197,30.375,14.8125,-10.875
1481271457335211,17.8125,8,-12.1875
1481271457350373,31.875,15.75,-9.6875
1481271457373220,40.0625,5.3125,-15.6875
1481271457388238,39.9375,3.25,-16.8125
1481271457412285,43.875,11.75,-17
1481271457425314,48.8125,9.1875,-14.1875
1481271457447854,58.625,4.875,-12.5625
1481271457477866,64.5,10.875,-5.8125
1481271457484932,74.3125,18.3125,-4.3125
1481271457508921,80,13.4375,-4.0625
1481271457530376,94.625,6.5,-3.375
1481271457547027,99.1875,15.4375,-7.75
1481271457582966,94.3125,20.125,-6.875
1481271457589961,91.4375,26.6875,-5.875
1481271457606088,101.688,30.5,-3.75
1481271457628036,93.5,17.5625,-5.125
1481271457651096,94.8125,-7.8125,0
1481271457667080,90.75,-11.8125,5.5625
1481271457688098,88.375,-2.625,9.875
1481271457718152,93.0625,11.0625,4.75
1481271457727069,92.125,0.8125,2.3125
1481271457755140,91.625,-5.25,3.8125
1481271457770215,97.375,-5.8125,9.4375
1481271457787204,104.625,-9.625,5.375
1481271457807142,110.563,1.75,8.5625
1481271457830689,112.375,6.375,8.75
1481271457863214,127.563,-3.5625,9.625
1481271457867217,122.688,-9.4375,20.9375
1481271457899214,108.438,-10.125,23.75
1481271457907279,111.875,-11.25,12.375
1481271457929301,104.688,0.5,7.9375
1481271457967657,109.563,4.125,-5.5625
1481271457969630,112.188,-2.375,-2.125
1481271457994662,102.813,-0.25,3.5625
1481271458009635,89.125,-0.5,0.5625
1481271458034647,85.5625,-7.5625,18.875
1481271458047790,86.625,-10.1875,18.3125
1481271458069802,80.875,-5.3125,10.9375
1481271458086684,78.625,-7.8125,5.9375
1481271458107690,70.5625,-6.1875,14.8125
1481271458139777,74.125,-6.125,26.8125
1481271458146745,67.375,-5.3125,20.9375
1481271458169782,60.25,-4.8125,10.1875
1481271458189744,60.0625,-12.1875,7
1481271458206745,61.5625,-11.5625,8.25
1481271458235321,57.0625,-5.6875,4.4375
1481271458249970,43.5,4.25,-8.9375
1481271458273971,51.125,-6.3125,-25.5
1481271458288039,49.625,1.5625,-17.25
1481271458312043,37.5625,-10.125,-5.625
1481271458327055,32.9375,-11.1875,2.9375
1481271458347583,29,-6.125,12.375
1481271458377608,31.375,-1.5,16.1875
1481271458386532,22.3125,2.5,20.125
1481271458416512,18.25,-6.75,28.125
1481271458430603,29.25,-4.25,20.375
1481271458446604,37,-3.625,14.5
1481271458467652,34.625,-7.5,6.75
1481271458490636,39.8125,2.4375,-1.875
1481271458514637,53.6875,-5.1875,2.9375
1481271458528176,46,1.0625,9.8125
1481271458552310,58.125,-4.5,2.5
1481271458566315,76.75,-0.125,-10.5
1481271458590292,61.5625,-0.75,-12.25
1481271458617425,48.125,-3.5625,-6.3125
1481271458626325,29,-2.125,-9.5625
1481271458656826,26.8125,-3.625,-8.0625
1481271458669908,14.8125,-2.0625,-6.9375
1481271458694833,-3.25,-3.4375,-5.6875
1481271458708828,-8.1875,-5.875,-10.625
1481271458730414,-10.75,0.625,-14.125
1481271458745921,-3.4375,1.5625,-11.1875
1481271458768991,-0.5625,1.25,-7.625
1481271458791928,1.8125,-1.4375,1.125
1481271458805926,-0.875,-3.4375,9.25
1481271458829442,-2.625,-2.875,2.75
1481271458852016,-0.875,-1.1875,-1.6875
1481271458866954,2.4375,0.8125,-4.125
1481271458896960,3.5625,0,-2.125
1481271458910023,-0.8125,-0.9375,4.5625
1481271458934540,-5.4375,-1.875,3
1481271458948992,-4.3125,-1.1875,-5.5625
1481271458972052,-1.375,1.1875,-8.125
1481271458985990,-2.3125,2.8125,-5.75
1481271459009041,-5.125,0.8125,-0.75
1481271459038069,-6.5,-0.8125,1.125
1481271459045910,-3.5625,-1.25,2.125
1481271459068991,-4.0625,-0.25,6.625
1481271459089921,-9.125,0.125,2.0625
1481271459105913,-19.9375,-0.3125,-4.1875
1481271459129436,-27.25,-1.0625,2.125
1481271459149945,-32.875,-2.9375,1.625
1481271459173943,-43.5625,1.3125,0.375
1481271459188951,-47.4375,0.6875,-2.5
1481271459211981,-53.8125,1.1875,-4.8125
1481271459226472,-55.1875,4.5625,-0.375
1481271459250987,-52.875,5.375,1.125
1481271459278039,-47.875,4.125,-0.625
1481271459285978,-46.5625,4.8125,0.5625
1481271459317009,-45.5625,3.8125,-0.875
1481271459330551,-47.5,3.375,-10.1875
1481271459345994,-56,5,-13.625
1481271459368999,-66.6875,4.6875,-11.625
1481271459389996,-67.0625,-1.5625,-3.8125
1481271459405997,-76.0625,-1.0625,-4.625
1481271459429081,-75.4375,-2.9375,-4.3125
1481271459451031,-83.125,-5.6875,-4
1481271459466029,-86,-3.125,1.5
1481271459488095,-89.5,0.625,2
1481271459528044,-92.5625,-3.4375,4.4375
1481271459533078,-100.063,-7.25,3.5
1481271459557056,-103,-7.5,2.0625
1481271459572127,-111.313,-4.5,-0.375
1481271459586060,-107.063,-3.875,-1.4375
1481271459608159,-117.5,-3.125,-8.75
1481271459632196,-114,-1.625,-11.5625
1481271459646040,-120.5,2.5,-7.625
1481271459668108,-118.875,0.75,-0.9375
1481271459691041,-111.625,-3.5625,1.9375
1481271459706042,-112.063,-8.1875,6
1481271459728551,-117.313,-6.1875,13.875
1481271459751143,-122.375,-4.1875,8.5
1481271459773060,-130.375,-2.6875,0.3125
1481271459789063,-122.813,-6.5,4.125
1481271459812126,-123.625,-10.3125,9.9375
1481271459833141,-117.25,-6.9375,7.4375
1481271459848789,-133.5,0.5,1.1875
1481271459871786,-122.875,7.625,-2
1481271459892869,-109,6.1875,4.0625
1481271459914867,-110.563,2.375,8.0625
1481271459932309,-114.875,0.0625,5.5625
1481271459960025,-114,2.625,1.5625
1481271459969017,-112.625,6.625,0.5
1481271459991951,-119,2.375,6
1481271460013018,-124.875,-4.625,4.75
1481271460029033,-122,-8.3125,7.4375
1481271460052170,-104.563,-8.375,0.5625
1481271460073169,-116.188,-5.9375,2.0625
1481271460088197,-112.625,0.9375,10.5
1481271460112175,-107.438,9.625,12.25
1481271460133209,-105.313,4.25,7.5
1481271460148531,-92.3125,1.75,3
1481271460171534,-93.3125,-10,-3.3125
1481271460192537,-88.75,-12.8125,-0.9375
1481271460208534,-68.375,-8.375,5
1481271460232067,-45.5625,3.5,12.375
1481271460252750,-20.125,13.75,13.6875
1481271460268754,23.4375,11.3125,12.5
1481271460291753,29.6875,0.1875,9.5
1481271460312752,22.0625,-10.5,0.3125
1481271460328768,30.5,-7.375,-0.5625
1481271460350993,28.0625,3.875,4.0625
1481271460373029,28.0625,10,1.875
1481271460388070,21.0625,8.8125,3
1481271460411002,-0.8125,-1.0625,2.6875
1481271460433078,-7.0625,-11.375,-0.1875
1481271460448520,-5.6875,-9.875,-0.4375
1481271460471587,-8.3125,0,0.5625
1481271460494588,-0.625,7.5,1.25
1481271460516532,12.9375,11.875,1.9375
1481271460531107,15.6875,4.4375,-1.3125
1481271460554316,10.75,-4.875,-1.25
1481271460568381,3.6875,-9.3125,-1.25
1481271460591317,-4.875,-3.5625,-1.25
1481271460621310,2.1875,7.375,-1.3125
1481271460628888,8.1875,6.375,1.1875
1481271460650901,6,0.5,3.75
1481271460673834,7.3125,-5.6875,0.75
1481271460688901,4.25,-7.4375,-1.375
1481271460710852,8.8125,-1.3125,-3.3125
1481271460734423,5.25,5.6875,0.75
1481271460748493,9,5.8125,3.75
1481271460771559,9.3125,-0.125,1.8125
1481271460794530,-3.375,-3.5,-0.5625
1481271460808497,-0.75,-2.3125,-0.875
1481271460831652,-0.9375,2,-1.6875
1481271460854100,1.375,3.0625,0.3125
1481271460876100,6.1875,-0.1875,0.1875
1481271460891099,2.9375,-0.625,-2.125
1481271460914102,3.375,-2.25,-1.3125
1481271460929150,-2.0625,-3.25,-0.9375
1481271460951716,-0.6875,-6.125,0.4375
1481271460981655,6.375,-2.4375,-1
1481271460994783,-2.1875,1.5625,0.5
1481271461010725,-5.5625,0.6875,2
1481271461034172,-6.6875,-4.3125,1.3125
1481271461055187,-3.625,-5.3125,0.8125
1481271461072205,-2.25,-2.0625,0.6875
1481271461093911,4.375,1.8125,1.4375
1481271461116781,6.875,1.125,4.3125
1481271461131352,5.125,-4.3125,6.9375
1481271461154367,6.8125,-3.75,6.8125
1481271461175364,7.3125,-1.5,5.5
1481271461191364,6.5625,0.625,7.4375
1481271461214365,5.0625,1.875,4.6875
1481271461235382,-0.0625,2.75,9.375
1481271461251454,-3.3125,2.875,12.9375
1481271461281459,0.875,-0.75,14.9375
1481271461295472,-4.375,1.75,17.8125
1481271461311396,1.5,14.5625,29.6875
1481271461333407,36.8125,18.5,46.625
1481271461355029,-2.25,33.6875,55.1875
1481271461371024,-6.8125,16.3125,70.375
1481271461402092,47.5625,9.5625,78.5
1481271461417092,37.75,0.375,66.375
1481271461431038,19.9375,-8.6875,64.5
1481271461454665,29.5,4.8125,65.375
1481271461477669,47.875,7.4375,82.125
1481271461490635,31.25,12.4375,103.313
1481271461513609,-5.5,10,111.813
1481271461537303,-6.9375,11.875,111.375
1481271461550799,3.3125,2.125,107.875
1481271461581770,1.5,-6.75,105.063
1481271461596769,-0.3125,6.375,94.9375
1481271461610769,-7.625,-12.625,97.8125
1481271461633791,-12.6875,-26.1875,106.875
1481271461656933,-9.25,-24.0625,136.438
1481271461670935,-36.375,-19.5625,149.25
1481271461693937,-72.375,-0.8125,145.375
1481271461716942,-55.8125,-17.25,142.813
1481271461739450,1.375,-17.625,112.25
1481271461754029,27.4375,-3.75,105.625
1481271461776962,7.4375,4.125,92.0625
1481271461804972,-44.0625,-13.375,82.4375
1481271461814031,-50.375,-11.625,90.5
1481271461844006,-16.1875,0,90.8125
1481271461858077,25.4375,-6.125,103.25
1481271461873072,38.9375,-21.75,125.063
1481271461897043,41.5,-27.6875,128.25
1481271461918113,41.0625,-16.625,119.5
1481271461934093,33.8125,0.875,106.438
1481271461956041,34.3125,18.8125,92.1875
1481271461978171,8.625,16.75,85.5625
1481271461993143,-7.625,10.75,83.75
1481271462017106,7.1875,15.125,70.5
1481271462038131,13,18.5625,81.9375
1481271462053203,39.4375,14.6875,119.938
1481271462076169,29.875,0.0625,141.5
1481271462098137,-5.625,-6.8125,133.438
1481271462113124,-27.9375,2.125,109.063
1481271462136589,-18.25,25.5625,99.4375
1481271462158128,-2.1875,28.25,79.25
1481271462174095,-21.1875,20.4375,69.875
1481271462196101,-28,13.375,67.6875
1481271462218161,-18.3125,-10.8125,79.125
1481271462233608,2.5625,-23,83.3125
1481271462257118,31.3125,-19.375,56.625
1481271462285153,12.3125,-12.4375,57.6875
1481271462293132,-16.0625,-11.0625,51
1481271462316121,-21.625,-21.375,44.75
1481271462338167,-5.5625,-24.75,50.5
1481271462353141,2.625,-23.0625,44.625
1481271462376144,-2.1875,-13.5625,17.125
1481271462399146,-6.875,4.9375,-3.8125
1481271462413145,-2.25,10.625,-3.0625
1481271462436158,-4.4375,6.4375,-4.8125
1481271462459168,-15.875,6.75,-7.375
1481271462473169,-6.1875,6.125,-7.1875
1481271462496170,19.8125,1.6875,-8.3125
1481271462519176,5.3125,4,-12.9375
1481271462533680,-22.4375,11.875,-14.0625
1481271462556184,-12.3125,7.1875,-6.25
1481271462579185,1.5625,-3,2.625
1481271462593221,13.375,-4,3.375
1481271462616188,3,5.8125,-7.1875
1481271462639204,-14.875,9,-2.875
1481271462653746,-0.625,1.6875,2.3125
1481271462675762,12,-3.8125,1.5625
1481271462722770,8.875,0.5,-1.3125
1481271462722770,1,5,-3.4375
1481271462742864,-4.5625,3.6875,-4.0625
1481271462759819,-0.5625,5.3125,-6.3125
1481271462773915,2.375,5.5625,-9.625
1481271462803792,-0.5,1.75,-7.75
1481271462827315,9,4,-10.5
1481271462848854,2.9375,8.625,-6.5625
1481271462863888,6.25,2.6875,-6.375
1481271462886849,3.875,0.1875,-6
1481271462908901,-5.5,1.125,-6.0625
1481271462922855,-3.125,-3.25,-3.9375
1481271462946913,2.125,-8.625,-0.375
1481271462968907,0.1875,-3.5,-2.375
1481271462982912,1.375,-2.25,-0.625
1481271463006913,-0.875,-2.125,-2.75
1481271463029584,7.8125,-1.1875,-6.5
1481271463050246,19.0625,-7.3125,-8.1875
1481271463067236,7.1875,-0.625,-18.8125
1481271463089169,-7.875,1.75,-24.9375
1481271463110172,-13.75,2.4375,-24.125
1481271463126885,-0.0625,1.9375,-20.9375
1481271463148990,25.375,-0.375,-32.1875
1481271463170003,13.375,0.1875,-37.375
1481271463186929,-9.625,-2.75,-41.3125
1481271463208923,-11.375,1.3125,-52.5625
1481271463230442,-9.6875,-5.8125,-63.75
1481271463246448,-2.5,-8.125,-73.625
1481271463269449,19.9375,-0.8125,-80.1875
1481271463290455,47.75,5.5,-88.125
1481271463306452,48.5,10.9375,-98.5625
1481271463329468,13.3125,-6.4375,-115.063
1481271463350003,-13,-17.5,-122.313
1481271463359069,-12.6875,-22.5,-112.063
1481271463382083,19.9375,7,-117.5
1481271463396010,40.875,25.125,-126.563
1481271463418105,14,31.5625,-144.813
1481271463442089,-48.4375,8.5625,-141.938
1481271463464296,-40.3125,-13.5,-145.313
1481271463478356,34,-18.0625,-152.375
1481271463501336,72.125,5.75,-160.188
1481271463524315,16.125,24.3125,-164
1481271463547357,-20.5625,24.9375,-166.063
1481271463593360,-32.9375,1.6875,-146.5
1481271463599398,-13.75,1.625,-132.688
1481271463601360,16.125,-11.75,-131.688
1481271463621398,31.375,-11.875,-139.688
1481271463651707,-4.8125,-18.3125,-134.313
1481271463658754,-27.5,-13.375,-121.125
1481271463690746,-17.0625,4.75,-119.25
1481271463702791,21.0625,24.9375,-123.813
1481271463735809,43.25,19.875,-135.438
1481271463742311,-27.9375,-7.0625,-129.563
1481271463762988,-79.625,-12.375,-134.063
1481271463793991,-57.8125,13,-113.563
1481271463802019,-11.1875,27.75,-88.6875
1481271463822992,34.3125,31.125,-95.625
1481271463846578,7.75,-5.875,-97.0625
1481271463869650,-39.75,-43.5625,-90.6875
1481271463874583,-43.4375,-38.625,-74.3125
1481271463905582,-9.3125,1.6875,-74.625
1481271463912659,15.9375,18.25,-65
1481271463934676,10.5625,-0.8125,-50.875
1481271463974112,-2.75,-25.875,-28.9375
1481271463976084,5.0625,-16.6875,-17.0625
1481271463994112,14.5625,-13.6875,-5.0625
1481271464018221,5.5625,-9,3.5
1481271464042628,1.4375,-13.5625,6.25
1481271464079752,5.8125,-21.375,7.5625
1481271464081752,0.6875,-21.6875,15.1875
1481271464100833,0,-11.8125,16.9375
1481271464122754,-24.625,29.1875,-8.125
1481271464148894,-28.875,34.0625,-8.3125
1481271464152980,-11.625,-3.8125,2.875
1481271464183996,-22.625,-24.5625,10.3125
1481271464205898,-23.5625,-19.25,-1.75
1481271464211898,-4.875,-11.8125,-1.0625
1481271464244453,18.25,-13.9375,5.9375
1481271464258419,10.1875,-8.8125,8.375
1481271464275455,3.5625,-3.375,1.75
1481271464294446,-5,-1.25,2.375
1481271464317429,-23.125,-5,2
1481271464348116,-11.25,-6.75,4.0625
1481271464357104,11.9375,-0.375,2.1875
1481271464378102,-6.75,0.1875,0.6875
1481271464392042,-7.75,-3.875,-1.375
1481271464417105,11.9375,-9.625,0.3125
1481271464445569,4.25,-7.1875,0.4375
1481271464460609,-9.8125,1.375,-0.4375
1481271464484637,1.5625,4.75,-2.75
1481271464497638,21.8125,9.9375,0.0625
1481271464530218,6.9375,1.875,-1.4375
1481271464534679,-4.9375,-3.5625,-13.25
1481271464557769,-10.0625,-6.125,-10.25
1481271464572688,-12.375,-1.5,-2.9375
1481271464594768,-2.0625,-3.75,6.625
1481271464634316,-19.6875,-6.125,-39
1481271464636787,-0.875,7,-36.6875
1481271464657430,8.375,7.875,-21.875
1481271464700466,-15.8125,0.75,-18.3125
1481271464709538,-3.625,3.125,-39.5
1481271464723443,31.9375,11.6875,-44.8125
1481271464739520,38.75,14.8125,-38
1481271464761593,18.125,3.875,-35.0625
1481271464806665,23.625,-0.25,-60.25
1481271464809593,1.6875,8.375,-74
1481271464847180,-9.4375,8.3125,-63.9375
1481271464868115,18.25,16.6875,-73.1875
1481271464870150,25.875,8.4375,-79.125
1481271464875116,8.0625,23.75,-90.1875
1481271464912136,-12.5,35.625,-101
1481271464942700,8.125,24.6875,-91.8125
1481271464943637,39.0625,20.0625,-103.125
1481271464981023,38.625,2.9375,-120.563
1481271464987024,9.6875,6.5625,-105.063
1481271465000105,-14.625,16.6875,-92.375
1481271465014028,-11.375,30.5625,-82.8125
1481271465039118,4.3125,19.875,-91.625
1481271465076763,-21.5,7.0625,-142
1481271465078721,-44.375,-13.0625,-155.563
1481271465105658,-30,-14.8125,-111.25
1481271465120734,-19.125,-14.25,-91.625
1481271465143212,33.5,-16.0625,-115.813
1481271465157105,31.625,-37.875,-128.563
1481271465180094,-1.5625,-8.0625,-140.625
1481271465194096,-25.3125,12.5625,-121.313
1481271465217097,-27.4375,24.625,-116.5
1481271465248119,-33.125,2.375,-109.125
1481271465254121,-2.9375,-7.75,-116.125
1481271465278177,9.4375,7.1875,-116.688
1481271465300122,-0.6875,15.875,-105.25
1481271465316122,57.75,13.6875,-115
1481271465338632,12.5,-6.375,-94.25
1481271465360146,10.6875,4,-113.813
1481271465383207,22,4.6875,-109.75
1481271465397145,12.125,-20.8125,-113.375
1481271465421200,9.75,-9.625,-108.5
1481271465434660,29.375,5.6875,-103.125
1481271465460167,11.3125,4.4375,-97.0625
1481271465487172,-14.4375,27.5,-97.4375
1481271465497233,-30.9375,18.25,-92.3125
1481271465527172,-18.25,3.0625,-92.3125
1481271465540194,-6.8125,1.9375,-81.125
1481271465556207,1.9375,-4.375,-79.5
1481271465577206,-6.1875,-0.875,-73.1875
1481271465600270,8.1875,10,-81.0625
1481271465614208,-4.4375,11.1875,-83.0625
1481271465637313,14.75,1.1875,-84.6875
1481271465660391,27.4375,-3.75,-83.0625
1481271465674339,30.3125,-5.5,-75.5
1481271465697324,34.625,1.5,-70.8125
1481271465720328,27.3125,4.75,-70.4375
1481271465734844,8.5625,0.25,-66.5
1481271465757410,17,-1.1875,-55.4375
1481271465788349,27.0625,-5.75,-41.1875
1481271465794419,10.25,0.5,-34.0625
1481271465817358,1.875,4.875,-25.8125
1481271465840365,-0.5,2.3125,-20.875
1481271465854378,-4.3125,-6.375,-6.6875
1481271465877381,17.8125,-15.75,0.625
1481271465900384,1.6875,-14.6875,6
1481271465914490,-17.125,-5.6875,10.0625
1481271465937434,-4.0625,-1.25,14.9375
1481271465959997,12.5,6.25,16.125
1481271465975062,4.75,8.3125,14.8125
1481271465997000,-4.875,3.4375,10.4375
1481271466020004,-10.625,1.5625,5.625
1481271466035078,-27.0625,0.125,3.875
1481271466056602,-28.5,2.1875,0.0625
1481271466080528,-29.125,3,1.25
1481271466094539,-28.5,3.375,4.6875
1481271466116642,-25.5625,1,6.9375
1481271466148288,-5.3125,0.0625,8.125
1481271466154213,4.25,-2.125,14
1481271466177289,10.5625,-4.625,13.0625
1481271466199530,5.6875,0.6875,7
1481271466214463,-1.125,-0.375,-2.1875
1481271466237540,3.25,-1.4375,-6.4375
1481271466259510,9.875,-8.625,-4.1875
1481271466274483,4.625,-11.0625,-4.9375
1481271466297552,-4.1875,-9.25,-0.875
1481271466328556,1.375,-4.6875,5.3125
1481271466334570,13.25,0.5,10.375
1481271466357201,11.4375,1.1875,9.875
1481271466379122,2.6875,-0.6875,13
1481271466394123,5.5625,-3.75,19.4375
1481271466425125,14.25,-3.875,25.3125
1481271466448315,12.75,2.3125,29.6875
1481271466454282,11.6875,8.25,26
1481271466477409,-14.25,12.875,31.0625
1481271466499415,-4.5625,10,43.5
1481271466514315,17.5,-3,63.6875
1481271466537334,23.3125,-2.875,56.5625
1481271466559778,-21.5,8.75,54.6875
1481271466574760,-45.625,12.375,58.375
1481271466596767,-16.4375,9.75,54.375
1481271466619772,11.375,7,55.5
1481271466634780,0.0625,11.75,56.8125
1481271466656789,-19.5625,4,59.5
1481271466679790,0.8125,6.8125,70.0625
1481271466694795,3,8.9375,95
1481271466716884,-19.5625,6,104.938
1481271466739805,-0.375,-3.6875,109.813
1481271466754397,28.6875,5.8125,113.75
1481271466777398,17.25,15.6875,111.813
1481271466799478,-20.5,14.5,117.625
1481271466814402,-25.875,-6.9375,155.375
1481271466837481,80.6875,-34.5625,191.813
1481271466859560,122.188,-19.75,167.313
1481271466882520,61.1875,19.8125,147.063
1481271466897523,-15.8125,45.9375,123.938
1481271466919463,-8.8125,42.25,130.688
1481271466942970,14.125,30.75,154.063
1481271466957069,36.375,41.125,152.75
1481271466979055,31.4375,40.4375,116.625
1481271467002984,8.5,63.9375,104
1481271467017057,1.8125,62.25,115.438
1481271467040080,13.3125,32.4375,105.938
1481271467063178,27.625,10.9375,85.125
1481271467077155,58.625,20.75,96.3125
1481271467099158,44.4375,9.25,119
1481271467122082,8.3125,-17.0625,121.813
1481271467137089,-15.375,-9.1875,110.625
1481271467160116,-26.25,4.1875,98.125
1481271467181987,-33,-4.1875,104.063
1481271467197054,-43.5,-17.75,132.375
1481271467220051,-51.6875,-21.625,127.625
1481271467244061,-59.5625,-20.75,124.875
1481271467256879,-70.9375,-11.125,112.188
1481271467280884,-65.4375,-6.75,101.688
1481271467301976,-74.1875,-8.625,105.688
1481271467316918,-103.063,-15.875,131.5
1481271467339911,-90.9375,-39.25,132.188
1481271467361921,-17.1875,-21.125,89
1481271467377016,33.6875,22.625,48.3125
1481271467400051,22.8125,31.625,13.0625
1481271467421922,-23.5625,17.125,-6
1481271467437545,-28.625,-28.1875,9.1875
1481271467459660,7.875,-24.375,-5.375
1481271467481715,5.4375,-2.6875,-12.3125
1481271467496717,-19.6875,25.375,-16.5
1481271467519642,-30.875,26,-17.9375
1481271467542166,-3.75,16.875,-9.875
1481271467575179,23.8125,-1.25,-1.375
1481271467579174,24.5,-21.25,-0.6875
1481271467603208,34.875,-15.875,4.4375
1481271467617203,31.875,-3.5625,-4.1875
1481271467641711,0.75,9.5,-12.375
1481271467680755,7.3125,-1.9375,-7.6875
1481271467684751,22.6875,-12.9375,6.75
1481271467707752,13.0625,-25.1875,8
1481271467721756,0.4375,-6.5625,-5.3125
1481271467744766,-7.3125,8.9375,-11.0625
1481271467759869,-3.125,2.5,-8.3125
1481271467781964,15.3125,-5.4375,0.0625
1481271467796870,20.25,-9.6875,7.0625
1481271467819880,0.9375,1.5625,-2
1481271467852391,-13.375,6.6875,-5.375
1481271467857394,-11.1875,-4.125,-2.3125
1481271467881462,-5.25,-11.25,2.75
1481271467902397,21,-12.25,-6.375
1481271467920430,29.5625,-0.125,-10.4375
1481271467948229,31.5625,5.8125,-4.1875
1481271467962242,51.25,5.125,-33.3125
1481271467986230,53.25,21.3125,-30.6875
1481271467999193,31.375,38.25,-12.3125
1481271468025165,-2.5,19.375,-4.625
1481271468038708,1.375,4.25,-44.25
1481271468062312,-31.75,-4.0625,-30.1875
1481271468090315,-29.125,6.0625,-5
1481271468098287,-15.375,2.6875,-0.125
1481271468137326,-21.75,6.0625,-4.6875
1481271468142330,-40.4375,6.4375,-19.6875
1481271468167841,-55.6875,-0.9375,-18.5625
1481271468198840,-27.25,0.8125,-7.0625
1481271468203841,18.0625,-2.1875,5.1875
1481271468235855,38.4375,-12.625,1.25
1481271468239854,38.8125,-18.8125,-14.0625
1481271468271866,42.875,-13.75,-23.625
1481271468310871,23.1875,-1.3125,-9.5
1481271468315937,13.375,1.3125,-11.9375
1481271468339382,0.5,10.9375,2
1481271468341378,-15.25,9.5625,7.625
1481271468370890,-23.1875,2.0625,11.25
1481271468405956,-15,-4,4.25
1481271468415941,-13.625,1.6875,-5.3125
1481271468452986,-9.5,12.9375,-5.25
1481271468458983,9.3125,9,-6.6875
1481271468460984,26.3125,2.3125,-1.8125
1481271468480020,17.375,4.25,6.875
1481271468511986,4.25,-1.6875,3.25
1481271468518989,5.3125,-4.75,1.4375
1481271468543589,-2.4375,1.375,2.125
1481271468562082,-14.625,3.3125,-3.625
1481271468580082,-13.6875,2,-8.5
1481271468616105,2.5,-0.5,-4.25
1481271468622083,8.1875,1.6875,6
1481271468647165,4.75,-1.1875,6.625
1481271468660124,11.9375,-2.8125,0.875
1481271468685104,2.8125,-1.25,-1.8125
1481271468722157,-9.1875,1.4375,-4.4375
1481271468724106,-17.6875,2.6875,-3.0625
1481271468750194,-20.0625,-3.5625,-3.75
1481271468764136,-13.875,-3.6875,-3.3125
1481271468791130,5.5625,-1.4375,-4
1481271468802135,18.375,-2.625,-11.8125
1481271468827200,18.5625,-7.8125,-16.1875
1481271468857158,19.1875,0.375,-0.5
1481271468862154,11.6875,-4.375,6.1875
1481271468894158,-10.1875,-8.5,-2.125
1481271468901163,-24.9375,-3.875,-5.3125
1481271468925159,-15.5625,7.8125,-1.375
1481271468963752,-8.6875,4.1875,-0.75
1481271468968795,-0.75,-3.0625,-2.25
1481271468999755,8.1875,-0.625,4.75
1481271469005789,17.625,4.4375,11.625
1481271469028761,6.1875,1.875,4.375
1481271469042317,-5.75,-6.0625,-10.875
1481271469067944,-7.3125,-0.125,-9.6875
1481271469081880,-2.9375,5.8125,-0.0625
1481271469104881,1.1875,0.125,3.75
1481271469134478,5.875,-1.0625,5.5
1481271469141510,1.0625,0.5,6.9375
1481271469173017,-8.3125,-0.25,-1.9375
1481271469202092,0.375,-6.8125,-10.0625
1481271469204018,3.375,2.3125,1.125
1481271469241532,-2.125,4.75,5.0625
1481271469246555,-2.1875,-1.25,-1.125
1481271469276553,1.25,-5.3125,-0.375
1481271469283550,-0.0625,-1.6875,-0.5
1481271469305616,-2.875,-0.625,-1.25
1481271469321587,-5.375,-0.625,1.875
1481271469345065,2.3125,0.25,2.75
1481271469381675,5.5,-0.875,0.5
1481271469383636,8.375,-2.25,-3.0625
1481271469413620,8.1875,0,-4.0625
1481271469424585,0,-1.375,-2.5625
1481271469450126,-7.75,1.125,0.125
1481271469478125,-2.125,0.5,3.5
1481271469485163,-2.8125,1,1.4375
1481271469519125,-6.6875,0.5625,-1.5
1481271469523189,-5,0.5,-4.0625
1481271469554164,4.6875,-3.625,-4.625
