timestamp,x,y,z,w
1481271437822202,-0.0383911,-0.0263062,-0.987122,0.153381
1481271437842710,-0.0400391,-0.0264282,-0.986877,0.154541
1481271437882713,-0.0418091,-0.0269775,-0.986816,0.154236
1481271437887712,-0.0429077,-0.0272827,-0.986877,0.153625
1481271437909715,-0.0425415,-0.0272217,-0.986755,0.154419
1481271437918297,-0.0415649,-0.0249023,-0.986816,0.154602
1481271437947740,-0.0404663,-0.0241089,-0.986938,0.154419
1481271437978743,-0.039917,-0.0255737,-0.987,0.153748
1481271437980744,-0.039856,-0.0255127,-0.987,0.153748
1481271437999784,-0.0403442,-0.0234375,-0.987,0.154053
1481271438021756,-0.0404663,-0.0227051,-0.987,0.154236
1481271438039769,-0.0405273,-0.0239868,-0.986938,0.154236
1481271438059804,-0.0404663,-0.0246582,-0.986938,0.154236
1481271438082918,-0.0408325,-0.024231,-0.986938,0.153992
1481271438097855,-0.0406494,-0.0235596,-0.987,0.153809
1481271438122306,-0.039978,-0.0236816,-0.987,0.154053
1481271438158796,-0.0389404,-0.0228882,-0.987,0.15448
1481271438160802,-0.0387573,-0.022522,-0.987,0.154358
1481271438187942,-0.0388794,-0.0232544,-0.987122,0.153748
1481271438201798,-0.0391235,-0.0241699,-0.987061,0.153687
1481271438225810,-0.0396729,-0.0227661,-0.987061,0.154053
1481271438239675,-0.0397949,-0.0220947,-0.987061,0.154114
1481271438261640,-0.039917,-0.0229492,-0.987122,0.153564
1481271438277648,-0.039856,-0.0229492,-0.987122,0.153564
1481271438299678,-0.0397949,-0.0232544,-0.987,0.153992
1481271438329659,-0.039978,-0.0228271,-0.987061,0.153931
1481271438337662,-0.0405884,-0.0216064,-0.987061,0.153687
1481271438361664,-0.0410767,-0.0219727,-0.987061,0.153687
1481271438381664,-0.0410767,-0.0228882,-0.987,0.154053
1481271438399663,-0.0410156,-0.022583,-0.986938,0.15448
1481271438435685,-0.0392456,-0.024231,-0.987305,0.152039
1481271438441767,-0.0423584,-0.0261841,-0.988159,0.145325
1481271438465695,-0.0414429,-0.0270996,-0.988892,0.140137
1481271438478686,-0.0429688,-0.026062,-0.989685,0.13446
1481271438502685,-0.0449219,-0.0249023,-0.990051,0.131226
1481271438518693,-0.0454102,-0.0266113,-0.98999,0.131165
1481271438540704,-0.0472412,-0.0284424,-0.989929,0.130432
1481271438569710,-0.0488281,-0.026123,-0.989929,0.130737
1481271438577708,-0.0474854,-0.0206909,-0.989563,0.134888
1481271438608709,-0.0447998,-0.0205688,-0.989075,0.138916
1481271438621719,-0.0427246,-0.019104,-0.989075,0.139893
1481271438639727,-0.0429688,-0.0145874,-0.98938,0.138306
1481271438660727,-0.043396,-0.0151367,-0.989319,0.138428
1481271438681729,-0.0423584,-0.015625,-0.989197,0.139465
1481271438714238,-0.0435791,-0.0152588,-0.989197,0.139404
1481271438720741,-0.0444946,-0.0163574,-0.989075,0.139893
1481271438744747,-0.0437012,-0.0169067,-0.988953,0.14093
1481271438757815,-0.0442505,-0.0162964,-0.988953,0.14093
1481271438781822,-0.0446167,-0.0147705,-0.989014,0.140198
1481271438809769,-0.0438232,-0.0109253,-0.989197,0.139832
1481271438818307,-0.0429077,-0.00842285,-0.98938,0.138977
1481271438848577,-0.0415039,-0.00738525,-0.98938,0.139343
1481271438861577,-0.0405884,-0.00579834,-0.989258,0.140625
1481271438885580,-0.0410767,-0.00274658,-0.989136,0.141174
1481271438900580,-0.0389404,-0.0022583,-0.989258,0.14093
1481271438922088,-0.0365601,-0.00286865,-0.98938,0.140686
1481271438938102,-0.0342407,-0.000915527,-0.989624,0.139832
1481271438960107,-0.0336304,0.000183105,-0.989746,0.13916
1481271438991107,-0.0335083,0.00109863,-0.989746,0.139221
1481271438998105,-0.0331421,0.00183105,-0.989624,0.140137
1481271439022132,-0.031189,0.000976563,-0.989624,0.140564
1481271439042215,-0.03125,0.00012207,-0.989746,0.139648
1481271439059147,-0.031311,0.00262451,-0.989929,0.138123
1481271439088144,-0.0313721,0.0043335,-0.990051,0.137268
1481271439102179,-0.03125,0.00323486,-0.98999,0.137634
1481271439125653,-0.0308228,0.0032959,-0.990051,0.137634
1481271439146161,-0.0305786,0.00366211,-0.990051,0.13739
1481271439164164,-0.0301514,0.00372314,-0.990173,0.136658
1481271439178164,-0.0298462,0.00402832,-0.990173,0.136719
1481271439200166,-0.029541,0.00384521,-0.990173,0.136963
1481271439230178,-0.0292969,0.00366211,-0.990173,0.136902
1481271439238179,-0.029541,0.00488281,-0.990112,0.137146
1481271439269180,-0.0290527,0.00604248,-0.990173,0.136841
1481271439282235,-0.0286255,0.00543213,-0.990234,0.136353
1481271439299186,-0.0288086,0.00488281,-0.990295,0.135925
1481271439320692,-0.0288696,0.00531006,-0.990356,0.135681
1481271439341694,-0.0287476,0.00628662,-0.990356,0.135803
1481271439365698,-0.0285034,0.00720215,-0.990356,0.135803
1481271439380699,-0.027832,0.00671387,-0.990295,0.136047
1481271439404702,-0.0272217,0.00512695,-0.990356,0.136047
1481271439425705,-0.0272827,0.00506592,-0.990417,0.13562
1481271439442207,-0.0272827,0.00506592,-0.990417,0.13562
1481271439471711,-0.0269165,0.00366211,-0.990417,0.135803
1481271439478212,-0.0269165,0.00274658,-0.990417,0.135498
1481271439508216,-0.0276489,0.0020752,-0.990479,0.135132
1481271439523252,-0.0275269,0.00134277,-0.990479,0.135132
1481271439547254,-0.0274048,0.00177002,-0.990417,0.135498
1481271439560722,-0.0269775,0.00146484,-0.990417,0.135559
1481271439583259,-0.0267944,0.000671387,-0.990417,0.135681
1481271439599728,-0.0270386,0.000183105,-0.990479,0.135193
1481271439620729,-0.0270386,0.00128174,-0.99054,0.134705
1481271439643296,-0.0272827,0.00274658,-0.990479,0.135315
1481271439659734,-0.0269775,0.0022583,-0.990479,0.135376
1481271439680737,-0.0269165,0.00134277,-0.990479,0.135315
1481271439703304,-0.0268555,0.00134277,-0.990479,0.135315
1481271439724306,-0.0267944,0.00177002,-0.990479,0.135071
1481271439740745,-0.0271606,0.00231934,-0.990479,0.135254
1481271439763307,-0.0272217,0.00231934,-0.990356,0.135803
1481271439784776,-0.0270386,0.00213623,-0.990356,0.136108
1481271439808307,-0.0252075,0.0022583,-0.990417,0.136108
1481271439823307,-0.0257568,0.00195313,-0.990356,0.13623
1481271439844306,-0.0251465,0.00177002,-0.990356,0.136475
1481271439860760,-0.0257568,0.0022583,-0.990356,0.136353
1481271439883307,-0.0257568,0.0022583,-0.990356,0.136353
1481271439904309,-0.0258789,0.00195313,-0.990356,0.13623
1481271439920767,-0.0258179,0.00158691,-0.990356,0.136292
1481271439943771,-0.0255737,0.00140381,-0.990356,0.136353
1481271439964284,-0.0254517,0.00195313,-0.990356,0.13623
1481271439980775,-0.0258789,0.00268555,-0.990356,0.136108
1481271440003301,-0.0258789,0.00189209,-0.990417,0.135986
1481271440024781,-0.0258179,0.00134277,-0.990356,0.136108
1481271440040783,-0.0257568,0.00134277,-0.990356,0.136108
1481271440063306,-0.0256348,0.00115967,-0.990417,0.136047
1481271440084306,-0.0256348,0.00115967,-0.990417,0.135681
1481271440100791,-0.0256348,0.00158691,-0.990417,0.135681
1481271440123793,-0.0259399,0.00152588,-0.990417,0.135742
1481271440144831,-0.0261841,0.00115967,-0.990417,0.135681
1481271440160799,-0.0261841,0.000854492,-0.990417,0.13562
1481271440183802,-0.026123,0.000732422,-0.990479,0.135498
1481271440204306,-0.026123,0.00177002,-0.990479,0.135254
1481271440220806,-0.0265503,0.00238037,-0.990479,0.135437
1481271440243308,-0.0266724,0.00152588,-0.990479,0.135437
1481271440264312,-0.0267334,0.000793457,-0.990479,0.135315
1481271440280814,-0.0267334,0.00134277,-0.990479,0.135132
1481271440302852,-0.0270386,0.00201416,-0.990479,0.13501
1481271440324825,-0.0272217,0.00183105,-0.990479,0.13501
1481271440339827,-0.0270386,0.00170898,-0.990479,0.134949
1481271440363828,-0.0275879,0.00158691,-0.99054,0.13446
1481271440384831,-0.0278931,0.00152588,-0.99054,0.134399
1481271440399831,-0.0281372,0.00201416,-0.99054,0.134521
1481271440421848,-0.0281372,0.00201416,-0.99054,0.134521
1481271440444849,-0.0278931,0.00152588,-0.99054,0.134583
1481271440459851,-0.0279541,0.000915527,-0.99054,0.134644
1481271440482916,-0.027832,0.000610352,-0.990479,0.134888
1481271440505439,-0.02771,0.000610352,-0.99054,0.134521
1481271440520374,-0.0279541,0.000488281,-0.99054,0.134338
1481271440542943,-0.0279541,0.000793457,-0.99054,0.134521
1481271440564884,-0.0280151,0.0010376,-0.99054,0.134705
1481271440580880,-0.0279541,0.0010376,-0.99054,0.134705
1481271440602946,-0.0280151,0.000854492,-0.990601,0.134094
1481271440624900,-0.0283203,0.00134277,-0.990723,0.133301
1481271440640926,-0.0285645,0.00109863,-0.990723,0.133118
1481271440662408,-0.0284424,0.000549316,-0.990723,0.13324
1481271440684805,-0.0286865,0.00012207,-0.990723,0.133179
1481271440700809,-0.0283813,0,-0.990723,0.133118
1481271440721989,-0.0284424,-6.10352e-005,-0.990784,0.132813
1481271440744910,-0.0284424,0,-0.990784,0.132813
1481271440760913,-0.0285645,0.000183105,-0.990723,0.133118
1481271440782979,-0.0285645,0.000183105,-0.990723,0.133118
1481271440804995,-0.0285034,0.000183105,-0.990723,0.133118
1481271440829014,-0.0285034,0.000183105,-0.990723,0.133118
1481271440842013,-0.0284424,-6.10352e-005,-0.990784,0.132874
1481271440865016,-0.0286255,-0.000183105,-0.990784,0.132385
1481271440881031,-0.0289307,-0.000366211,-0.990784,0.132324
1481271440902019,-0.0288696,-0.000793457,-0.990784,0.132629
1481271440925034,-0.0286865,-0.000854492,-0.990723,0.132874
1481271440941070,-0.0286865,-0.00109863,-0.990723,0.132996
1481271440962039,-0.0281982,-0.00164795,-0.990723,0.132996
1481271440985039,-0.0283203,-0.00177002,-0.990784,0.13269
1481271441000041,-0.0285645,-0.00158691,-0.990845,0.132324
1481271441022063,-0.0286865,-0.00115967,-0.990845,0.132324
1481271441045068,-0.0286865,-0.000488281,-0.990784,0.132446
1481271441061069,-0.0284424,-0.00109863,-0.990784,0.132507
1481271441082067,-0.0281372,-0.00152588,-0.990784,0.132568
1481271441105615,-0.0281372,-0.0012207,-0.990784,0.132568
1481271441121148,-0.0281982,-0.00128174,-0.990784,0.132446
1481271441142250,-0.0283203,-0.00128174,-0.990845,0.132263
1481271441165159,-0.0285034,-0.000976563,-0.990784,0.132568
1481271441195162,-0.0286865,-0.000976563,-0.990784,0.132751
1481271441202163,-0.0283813,-0.000671387,-0.990784,0.132751
1481271441225177,-0.0281372,-0.000305176,-0.990845,0.132446
1481271441247178,-0.0280762,-6.10352e-005,-0.990784,0.132507
1481271441262179,-0.0278931,-6.10352e-005,-0.990784,0.132935
1481271441285182,-0.0279541,6.10352e-005,-0.990723,0.133118
1481271441307688,-0.027771,-6.10352e-005,-0.990784,0.132874
1481271441322197,-0.0276489,-0.000427246,-0.990845,0.132446
1481271441345201,-0.0276489,0,-0.990845,0.132446
1481271441369200,-0.0278931,0.000610352,-0.990784,0.132751
1481271441382203,-0.0280762,0.000366211,-0.990784,0.13269
1481271441405286,-0.0280762,0.000366211,-0.990784,0.13269
1481271441427310,-0.0282593,0.000427246,-0.990784,0.132446
1481271441442311,-0.0278931,0.000793457,-0.990845,0.132507
1481271441465313,-0.027771,0.0012207,-0.990845,0.132446
1481271441487314,-0.02771,0.00146484,-0.990845,0.132446
1481271441504314,-0.027832,0.0010376,-0.990784,0.132568
1481271441525351,-0.027771,0.000793457,-0.990845,0.132507
1481271441555354,-0.027771,0.000915527,-0.990845,0.132324
1481271441564354,-0.0276489,0.0012207,-0.990906,0.13208
1481271441586354,-0.0276489,0.00128174,-0.990906,0.13208
1481271441607992,-0.0276489,0.00183105,-0.990906,0.132019
1481271441624531,-0.0274048,0.0020752,-0.990906,0.131897
1481271441644477,-0.0272827,0.00183105,-0.990967,0.131592
1481271441667484,-0.0273438,0.00152588,-0.991028,0.131226
1481271441691482,-0.0276489,0.00219727,-0.991028,0.131042
1481271441704483,-0.0280151,0.0020752,-0.990967,0.131226
1481271441728559,-0.0279541,0.00177002,-0.990967,0.131226
1481271441767534,-0.0278931,0.00183105,-0.990967,0.131226
1481271441772590,-0.02771,0.000976563,-0.991028,0.131165
1481271441794500,-0.0279541,0.00115967,-0.990967,0.131226
1481271441804564,-0.0280151,0.00164795,-0.990967,0.131348
1481271441832609,-0.02771,0.00134277,-0.990967,0.131531
1481271441847516,-0.0276489,0.000976563,-0.990967,0.131592
1481271441864519,-0.0274658,0.000671387,-0.990967,0.131348
1481271441884611,-0.0274658,0.000671387,-0.990967,0.131348
1481271441907525,-0.0274658,0.000976563,-0.990967,0.131531
1481271441923661,-0.0274658,0.000976563,-0.990967,0.131531
1481271441945555,-0.0272217,0.000366211,-0.990967,0.131409
1481271441968604,-0.0272217,0.000366211,-0.990967,0.131409
1481271441983696,-0.0270386,0.000732422,-0.991028,0.131104
1481271442006630,-0.0272217,0.00115967,-0.991028,0.131104
1481271442045171,-0.0274048,0.000976563,-0.990967,0.131287
1481271442050159,-0.0274048,0.000366211,-0.990967,0.131409
1481271442072205,-0.0270996,-6.10352e-005,-0.991028,0.131104
1481271442087161,-0.0267944,0.000366211,-0.991028,0.130981
1481271442111671,-0.0269775,0.0010376,-0.991028,0.131104
1481271442124680,-0.0267944,0.000793457,-0.991028,0.131226
1481271442147683,-0.0271606,0.000366211,-0.991028,0.131226
1481271442163680,-0.0270996,0.000366211,-0.991028,0.131226
1481271442184778,-0.0270996,0.000366211,-0.991028,0.131226
1481271442215196,-0.0267334,0.000244141,-0.991028,0.131348
1481271442224310,-0.0266113,-0.000183105,-0.991028,0.131165
1481271442246307,-0.0267334,-0.000549316,-0.991028,0.131165
1481271442267392,-0.0267334,-0.000549316,-0.991028,0.131165
1481271442284310,-0.0267334,-0.000610352,-0.991028,0.131165
1481271442322426,-0.0264893,-0.000915527,-0.991089,0.13092
1481271442327424,-0.0263672,-0.00109863,-0.991028,0.131042
1481271442351426,-0.0263672,-0.00134277,-0.991089,0.130798
1481271442365561,-0.0264893,-0.00177002,-0.991089,0.130859
1481271442389498,-0.0264282,-0.00238037,-0.99115,0.130432
1481271442403430,-0.0283813,-0.00445557,-0.991272,0.128784
1481271442424768,-0.0338135,-0.00427246,-0.991211,0.128235
1481271442454757,-0.0253296,0.000366211,-0.992065,0.123169
1481271442462680,-0.0297241,-0.00384521,-0.992065,0.122253
1481271442486678,-0.0262451,-0.00201416,-0.991638,0.126709
1481271442507712,-0.0261841,-0.00152588,-0.991577,0.127075
1481271442523828,-0.0269165,-0.00390625,-0.99176,0.125488
1481271442546754,-0.0265503,-0.0012207,-0.991638,0.126282
1481271442567759,-0.026001,-0.000976563,-0.991638,0.126648
1481271442582819,-0.0244751,-0.00201416,-0.991699,0.126465
1481271442606757,-0.0254517,-0.000915527,-0.991821,0.125061
1481271442627808,-0.0257568,-6.10352e-005,-0.991821,0.125244
1481271442643870,-0.0262451,-0.000610352,-0.991699,0.125977
1481271442666874,-0.0263062,-0.00152588,-0.991577,0.126953
1481271442687870,-0.0286255,-0.00183105,-0.991638,0.125977
1481271442703877,-0.0322876,0.000366211,-0.991516,0.126343
1481271442726934,-0.0354614,0.00415039,-0.991455,0.125793
1481271442747930,-0.0252075,-0.000793457,-0.992004,0.123718
1481271442762914,-0.0227051,-0.00268555,-0.992188,0.12262
1481271442786930,-0.0210571,-0.00299072,-0.992126,0.123413
1481271442808026,-0.0222778,-0.000427246,-0.992126,0.123535
1481271442823099,-0.0213013,0.000610352,-0.992188,0.122925
1481271442847053,-0.0216675,0.000732422,-0.992249,0.12262
1481271442868067,-0.020874,0.0020752,-0.992615,0.119446
1481271442883037,-0.0183105,0.00506592,-0.992798,0.118591
1481271442906099,-0.0182495,0.00506592,-0.992676,0.119568
1481271442927556,-0.0204468,0.00488281,-0.992493,0.120667
1481271442949556,-0.0211792,0.00421143,-0.992432,0.121033
1481271442966563,-0.0216675,0.0055542,-0.992493,0.120728
1481271442987642,-0.0238037,0.00628662,-0.992371,0.120972
1481271443003560,-0.0240479,0.00823975,-0.992432,0.120544
1481271443026200,-0.0236816,0.0108643,-0.992554,0.119385
1481271443047200,-0.0241089,0.0111084,-0.992676,0.118164
1481271443063200,-0.0239258,0.010376,-0.992737,0.11792
1481271443086269,-0.0258179,0.0108032,-0.992676,0.117676
1481271443107739,-0.0254517,0.0108643,-0.992615,0.118164
1481271443123811,-0.0235596,0.0112305,-0.992737,0.117432
1481271443146753,-0.0262451,0.00872803,-0.99231,0.121033
1481271443167755,-0.0318604,0.0113525,-0.99176,0.123535
1481271443189834,-0.0302734,0.00811768,-0.991455,0.126831
1481271443206754,-0.0318604,0.00720215,-0.991211,0.128235
1481271443227773,-0.0333862,0.00671387,-0.991028,0.129578
1481271443249774,-0.0333252,0.00762939,-0.990967,0.130005
1481271443265782,-0.0334473,0.00579834,-0.990967,0.129883
1481271443287880,-0.0322876,0.00256348,-0.99115,0.128906
1481271443310289,-0.0291748,-0.00183105,-0.991333,0.128296
1481271443325800,-0.0303345,-0.00189209,-0.991089,0.1297
1481271443347803,-0.0307617,-0.00134277,-0.991028,0.130432
1481271443369872,-0.0322266,-0.000915527,-0.990845,0.131104
1481271443385807,-0.03302,-0.00262451,-0.990967,0.130371
1481271443409322,-0.0323486,-0.00274658,-0.991211,0.128601
1481271443429862,-0.0314941,-0.0022583,-0.991699,0.124817
1481271443445847,-0.0300293,-0.00164795,-0.991943,0.12323
1481271443468891,-0.0300903,-0.00231934,-0.992004,0.122742
1481271443489918,-0.0327759,-0.0032959,-0.991943,0.122559
1481271443505848,-0.0338745,-0.00494385,-0.991943,0.122375
1481271443529391,-0.034729,-0.00439453,-0.991882,0.122559
1481271443550492,-0.0358887,-0.00311279,-0.991943,0.121887
1481271443565491,-0.0363159,-0.00561523,-0.991943,0.121216
1481271443589426,-0.0358276,-0.00750732,-0.992004,0.120972
1481271443610473,-0.0371704,-0.00787354,-0.992065,0.120056
1481271443634495,-0.0390625,-0.00598145,-0.992065,0.119446
1481271443649506,-0.039917,-0.0055542,-0.992065,0.119202
1481271443671495,-0.0394287,-0.00457764,-0.992126,0.119263
1481271443685572,-0.0383301,-0.00457764,-0.992065,0.119751
1481271443710589,-0.0380859,-0.00262451,-0.992065,0.119934
1481271443737213,-0.0380859,-0.00292969,-0.99231,0.118164
1481271443746106,-0.038208,-0.00195313,-0.992371,0.11731
1481271443777127,-0.0380859,-0.000610352,-0.992371,0.11731
1481271443790185,-0.0361328,0.000244141,-0.992493,0.117188
1481271443806174,-0.0336914,0.000244141,-0.992493,0.117737
1481271443828819,-0.0327148,-0.000366211,-0.992493,0.117859
1481271443849827,-0.0327759,0.000488281,-0.992432,0.118469
1481271443865824,-0.0328369,0.00360107,-0.992371,0.118958
1481271443888818,-0.0308838,0.00585938,-0.992432,0.11908
1481271443911928,-0.0296021,0.0067749,-0.992493,0.118896
1481271443925220,-0.0301514,0.00854492,-0.99231,0.119751
1481271443949137,-0.0316772,0.00964355,-0.992126,0.120789
1481271443978133,-0.0335693,0.00927734,-0.992065,0.121277
1481271443987137,-0.0354614,0.00958252,-0.991882,0.121826
1481271444016719,-0.0360718,0.00915527,-0.991882,0.121948
1481271444029728,-0.0349731,0.0088501,-0.992004,0.121277
1481271444054730,-0.0357666,0.00927734,-0.992065,0.120361
1481271444068731,-0.0365601,0.0109253,-0.992004,0.120605
1481271444089747,-0.0373535,0.0119019,-0.991882,0.121033
1481271444105803,-0.0383301,0.0110474,-0.991943,0.120605
1481271444128622,-0.0388794,0.0103149,-0.991943,0.120239
1481271444157688,-0.0394287,0.0098877,-0.992004,0.119873
1481271444165689,-0.0396729,0.0100098,-0.992004,0.119446
1481271444189591,-0.0379639,0.0120239,-0.992004,0.120117
1481271444210095,-0.0336914,0.013916,-0.991821,0.122498
1481271444226107,-0.0317993,0.0132446,-0.991882,0.122681
1481271444265131,-0.0325928,0.0113525,-0.991943,0.122314
1481271444270129,-0.034729,0.00994873,-0.991943,0.121704
1481271444294110,-0.0372314,0.0098877,-0.991821,0.121948
1481271444308630,-0.0374146,0.00915527,-0.99176,0.122192
1481271444331702,-0.0369263,0.00860596,-0.99176,0.122742
1481271444345703,-0.0370483,0.00762939,-0.991638,0.123413
1481271444367705,-0.0387573,0.00726318,-0.991516,0.123962
1481271444398707,-0.0410767,0.00714111,-0.991394,0.124146
1481271444405705,-0.0421753,0.00628662,-0.991394,0.123901
1481271444436264,-0.0426025,0.00714111,-0.991394,0.123962
1481271444451312,-0.0426636,0.00769043,-0.991394,0.123962
1481271444466308,-0.0432129,0.00720215,-0.991394,0.123779
1481271444488337,-0.0444336,0.00628662,-0.991333,0.123596
1481271444511885,-0.0453491,0.00488281,-0.991333,0.123474
1481271444541334,-0.0457764,0.0022583,-0.991272,0.123718
1481271444548331,-0.045166,0.000366211,-0.991211,0.12439
1481271444572338,-0.0441284,0.000427246,-0.991089,0.125671
1481271444585334,-0.0427246,0.00012207,-0.990967,0.127319
1481271444608336,-0.0407715,0.000427246,-0.990967,0.128113
1481271444639363,-0.038269,0.0032959,-0.991272,0.126221
1481271444652357,-0.0365601,-0.00158691,-0.991577,0.12439
1481271444676360,-0.0356445,0.000366211,-0.992004,0.121399
1481271444691361,-0.0319214,0.000305176,-0.992249,0.120178
1481271444714477,-0.0289917,0.0010376,-0.992432,0.119446
1481271444728456,-0.0264282,0.00152588,-0.992554,0.119202
1481271444751454,-0.0250854,0.00152588,-0.992615,0.118713
1481271444780524,-0.026123,0.00238037,-0.992615,0.118591
1481271444788455,-0.0275879,0.00292969,-0.992554,0.118774
1481271444820468,-0.0269165,0.00335693,-0.992615,0.11853
1481271444832548,-0.0256958,0.00457764,-0.992615,0.118469
1481271444848479,-0.0234375,0.00610352,-0.992737,0.118225
1481271444871519,-0.0210571,0.00671387,-0.992737,0.118469
1481271444892485,-0.0199585,0.00671387,-0.992859,0.117798
1481271444915530,-0.0184326,0.00628662,-0.99292,0.117432
1481271444931314,-0.0148926,0.00610352,-0.993042,0.117126
1481271444954257,-0.00616455,0.0078125,-0.993042,0.117737
1481271444968219,0.00817871,0.00817871,-0.992981,0.118103
1481271444991313,0.024353,0.0090332,-0.992676,0.118347
1481271445020301,0.0391846,0.0109253,-0.992126,0.118469
1481271445028350,0.0471802,0.0126953,-0.991821,0.118103
1481271445059350,0.0546875,0.0157471,-0.991333,0.118652
1481271445097384,0.0684204,0.0178223,-0.990112,0.121216
1481271445099353,0.0821533,0.0182495,-0.988892,0.122925
1481271445111884,0.0932617,0.019165,-0.987793,0.12323
1481271445132547,0.106079,0.0209961,-0.986511,0.122986
1481271445148466,0.118652,0.0223999,-0.985046,0.122986
1481271445170556,0.133057,0.0229492,-0.983154,0.12323
1481271445193470,0.157349,0.0256958,-0.979858,0.120605
1481271445208469,0.184265,0.0278931,-0.975098,0.120422
1481271445230897,0.207703,0.0279541,-0.970398,0.120422
1481271445252956,0.229858,0.0275879,-0.965454,0.119934
1481271445267931,0.254272,0.0283813,-0.959351,0.119202
1481271445298901,0.276917,0.0297241,-0.953247,0.117676
1481271445313917,0.297729,0.0332642,-0.947083,0.115112
1481271445336469,0.321045,0.0370483,-0.939575,0.113281
1481271445374582,0.346191,0.0413208,-0.93042,0.113037
1481271445377513,0.370605,0.0450439,-0.921021,0.11145
1481271445388473,0.394287,0.0501709,-0.911072,0.109741
1481271445411040,0.416687,0.0539551,-0.90094,0.108582
1481271445441881,0.440491,0.0549927,-0.889526,0.108032
1481271445447821,0.463928,0.0565186,-0.877686,0.105957
1481271445470843,0.483887,0.059082,-0.867065,0.102905
1481271445493818,0.502686,0.0618896,-0.855957,0.103638
1481271445507952,0.521545,0.0670166,-0.843933,0.106018
1481271445531085,0.540283,0.0725708,-0.831726,0.105286
1481271445554087,0.561157,0.0768433,-0.817871,0.101746
1481271445577153,0.580627,0.0797729,-0.80426,0.0984497
1481271445591090,0.596497,0.0823364,-0.792419,0.0974121
1481271445614103,0.607971,0.0809326,-0.783691,0.0981445
1481271445653232,0.622498,0.0821533,-0.771851,0.0999146
1481271445657169,0.636414,0.0844727,-0.760132,0.0999146
1481271445681212,0.650757,0.0853271,-0.74823,0.0965576
1481271445695174,0.663818,0.0857544,-0.736755,0.0958862
1481271445719180,0.674622,0.0853271,-0.727051,0.0950928
1481271445733694,0.686035,0.0858765,-0.716003,0.0966187
1481271445754691,0.694275,0.0871582,-0.707947,0.0955811
1481271445770742,0.702698,0.0889282,-0.699707,0.0936279
1481271445793693,0.710632,0.0906982,-0.691406,0.0933838
1481271445822708,0.71759,0.0914917,-0.684082,0.0935669
1481271445830717,0.72699,0.0925293,-0.673645,0.0957642
1481271445853783,0.735535,0.0949097,-0.663818,0.0968628
1481271445874716,0.744019,0.0983276,-0.653625,0.0975952
1481271445890721,0.749634,0.101929,-0.646851,0.0961304
1481271445929778,0.752686,0.105835,-0.642517,0.097168
1481271445934809,0.754578,0.110474,-0.639404,0.0977783
1481271445958753,0.755249,0.114868,-0.637512,0.0995483
1481271445973746,0.75647,0.11676,-0.635559,0.100891
1481271445996748,0.757385,0.116821,-0.63446,0.100403
1481271446011254,0.756165,0.117126,-0.636047,0.0993652
1481271446034456,0.753418,0.118164,-0.639587,0.0964355
1481271446062446,0.750732,0.118774,-0.642822,0.095459
1481271446071481,0.748291,0.120361,-0.645386,0.0953369
1481271446101418,0.747742,0.12085,-0.645996,0.0944214
1481271446115515,0.748413,0.121094,-0.645325,0.093689
1481271446130949,0.74823,0.121277,-0.645386,0.0939941
1481271446153043,0.745544,0.121216,-0.648193,0.0960693
1481271446174945,0.742004,0.121521,-0.651978,0.0980225
1481271446204951,0.740051,0.12085,-0.654419,0.0974731
1481271446213450,0.739136,0.12085,-0.655334,0.0977783
1481271446237082,0.738708,0.121033,-0.655823,0.0974121
1481271446250962,0.738525,0.120911,-0.65625,0.0964355
1481271446273004,0.737671,0.121643,-0.657043,0.0963135
1481271446303966,0.736023,0.121887,-0.658752,0.0969238
1481271446310976,0.735352,0.120972,-0.659668,0.0974121
1481271446342030,0.736145,0.120483,-0.658813,0.0973511
1481271446356088,0.736816,0.120117,-0.658264,0.0964966
1481271446378988,0.736389,0.119507,-0.658813,0.0969238
1481271446393061,0.735046,0.119507,-0.6604,0.0963745
1481271446416504,0.734192,0.11969,-0.661438,0.0955811
1481271446430957,0.735229,0.119873,-0.660217,0.09552
1481271446453081,0.73645,0.119324,-0.659058,0.0951538
1481271446485023,0.736816,0.119385,-0.658508,0.0955811
1481271446490959,0.736572,0.119019,-0.658813,0.0961304
1481271446513973,0.735901,0.117859,-0.659729,0.0965576
1481271446536062,0.735168,0.117188,-0.660583,0.0970459
1481271446550985,0.734619,0.116455,-0.661255,0.0974731
1481271446581118,0.734009,0.116211,-0.661804,0.0985107
1481271446596055,0.733582,0.116394,-0.662292,0.0984497
1481271446619500,0.733643,0.115417,-0.662476,0.0979004
1481271446640116,0.733215,0.114563,-0.663269,0.0966187
1481271446657065,0.732727,0.113098,-0.664063,0.0964355
1481271446671015,0.732849,0.111755,-0.664246,0.0961914
1481271446694015,0.73291,0.111206,-0.664246,0.0957642
1481271446724595,0.732483,0.110779,-0.664795,0.0957642
1481271446731036,0.7323,0.110107,-0.665161,0.0956421
1481271446762074,0.731812,0.109924,-0.66571,0.0958862
1481271446776103,0.731384,0.109192,-0.666321,0.0955811
1481271446798047,0.730652,0.108643,-0.667297,0.0948486
1481271446813554,0.730347,0.10791,-0.667786,0.0950317
1481271446836126,0.730896,0.1073,-0.667358,0.0946655
1481271446859057,0.731445,0.107544,-0.666687,0.0946045
1481271446873101,0.731873,0.108215,-0.666077,0.0949097
1481271446897123,0.731262,0.109314,-0.666565,0.0947266
1481271446918074,0.731079,0.109192,-0.666809,0.0942993
1481271446933896,0.730774,0.109436,-0.667236,0.093689
1481271446956985,0.731323,0.108948,-0.666687,0.0939331
1481271446977967,0.731567,0.108765,-0.666382,0.0942993
1481271447001943,0.731262,0.109131,-0.666626,0.0945435
1481271447016953,0.730713,0.108948,-0.667358,0.0941772
1481271447039915,0.731079,0.108765,-0.666992,0.093811
1481271447053851,0.731201,0.109009,-0.666931,0.0928955
1481271447075850,0.731506,0.109619,-0.666626,0.0924072
1481271447104852,0.731506,0.109497,-0.666626,0.0921021
1481271447113364,0.731323,0.109131,-0.66687,0.0924072
1481271447136475,0.730713,0.10907,-0.66748,0.0928345
1481271447157475,0.731018,0.108887,-0.667175,0.0929565
1481271447173473,0.732239,0.10791,-0.665955,0.0928345
1481271447195513,0.732666,0.107666,-0.665527,0.0927734
1481271447218991,0.73175,0.106812,-0.666687,0.0933838
1481271447241000,0.730164,0.107605,-0.668213,0.0935059
1481271447255997,0.730408,0.107605,-0.66803,0.0930786
1481271447279004,0.731201,0.107666,-0.667297,0.0922852
1481271447318013,0.730896,0.107727,-0.667542,0.0923462
1481271447323100,0.730652,0.107666,-0.667847,0.0921021
1481271447346054,0.730164,0.108276,-0.668396,0.0912476
1481271447353025,0.729919,0.109009,-0.66864,0.0906372
1481271447384025,0.72998,0.109802,-0.668457,0.0906982
1481271447399022,0.729492,0.109375,-0.669006,0.0909424
1481271447414036,0.728943,0.10907,-0.669617,0.0911255
1481271447435794,0.728271,0.109009,-0.670471,0.0907593
1481271447458796,0.727722,0.108521,-0.671021,0.0914307
1481271447472805,0.727051,0.108643,-0.671631,0.0917969
1481271447495798,0.726074,0.109192,-0.672607,0.092041
1481271447519315,0.724915,0.10968,-0.673828,0.0914917
1481271447533093,0.72406,0.109375,-0.674805,0.0915527
1481271447556091,0.721924,0.108704,-0.677246,0.0912476
1481271447579092,0.718933,0.108459,-0.680603,0.0905151
1481271447600095,0.7146,0.109375,-0.685059,0.0899048
1481271447616109,0.709167,0.110779,-0.690491,0.0897827
1481271447638717,0.702454,0.112,-0.697083,0.0900879
1481271447661620,0.695435,0.111816,-0.703979,0.0906982
1481271447675621,0.68634,0.11145,-0.712769,0.0923462
1481271447698645,0.674622,0.110962,-0.72345,0.09552
1481271447720133,0.661865,0.110413,-0.734741,0.0993042
1481271447735643,0.650391,0.108704,-0.744812,0.102112
1481271447758646,0.640259,0.105896,-0.753723,0.10376
1481271447779645,0.63208,0.102112,-0.761047,0.104065
1481271447795647,0.624268,0.0990601,-0.767883,0.104187
1481271447819181,0.616089,0.0969849,-0.77478,0.103699
1481271447839749,0.607117,0.0939331,-0.782288,0.102966
1481271447855691,0.597961,0.0909424,-0.789673,0.102905
1481271447878820,0.586182,0.0888672,-0.798157,0.106689
1481271447899695,0.574707,0.0873413,-0.806396,0.108337
1481271447916235,0.564575,0.0834351,-0.814026,0.10791
1481271447939494,0.55426,0.081543,-0.821106,0.109192
1481271447959500,0.542114,0.0794678,-0.829346,0.109497
1481271447975561,0.526855,0.0769653,-0.839172,0.11084
1481271447998505,0.509705,0.0748291,-0.849365,0.114685
1481271448020548,0.493164,0.0722046,-0.858948,0.117676
1481271448036020,0.477661,0.0682983,-0.867737,0.119263
1481271448058027,0.463806,0.0648804,-0.875366,0.119995
1481271448080106,0.447937,0.0618286,-0.883728,0.120483
1481271448096023,0.432251,0.0585327,-0.891663,0.120972
1481271448118538,0.416382,0.0540161,-0.899353,0.121826
1481271448140119,0.401978,0.0510864,-0.906189,0.121094
1481271448156045,0.389282,0.050293,-0.912109,0.118713
1481271448169136,0.374756,0.0514526,-0.91803,0.119019
1481271448192046,0.357422,0.0474854,-0.92511,0.119019
1481271448215571,0.339417,0.041687,-0.932251,0.118347
1481271448229068,0.32135,0.0408325,-0.938843,0.116821
1481271448252070,0.305359,0.0422363,-0.944153,0.116333
1481271448275074,0.291199,0.0431519,-0.948425,0.117615
1481271448289072,0.276184,0.0458374,-0.952515,0.11969
1481271448312630,0.261475,0.0471802,-0.956299,0.122314
1481271448334656,0.246826,0.0442505,-0.959961,0.125
1481271448349656,0.233948,0.0408936,-0.963013,0.127319
1481271448371738,0.223389,0.038208,-0.965393,0.12915
1481271448394659,0.210754,0.0361328,-0.968201,0.130188
1481271448410658,0.195862,0.0341187,-0.971313,0.130493
1481271448431958,0.179443,0.0342407,-0.974487,0.130737
1481271448454880,0.165527,0.0360718,-0.976685,0.132141
1481271448477910,0.152954,0.034668,-0.978638,0.13324
1481271448491887,0.137512,0.0343018,-0.980896,0.133423
1481271448515472,0.122437,0.0337524,-0.98291,0.133362
1481271448537432,0.108643,0.0335083,-0.984558,0.133362
1481271448552420,0.0948486,0.0306396,-0.986145,0.132813
1481271448583479,0.0802002,0.0249023,-0.987793,0.131165
1481271448597418,0.0646973,0.0192871,-0.989319,0.129456
1481271448611933,0.0519409,0.0155029,-0.990234,0.128723
1481271448634062,0.043396,0.0128784,-0.990906,0.126953
1481271448658104,0.0369263,0.0158081,-0.99115,0.126648
1481271448672154,0.0338745,0.0203247,-0.991272,0.125916
1481271448694065,0.0302734,0.0247803,-0.991638,0.122986
1481271448717675,0.0297241,0.0241699,-0.992126,0.119324
1481271448731716,0.0171509,0.0202026,-0.99231,0.120972
1481271448754843,-0.00286865,0.0209961,-0.992615,0.11969
1481271448777708,-0.0137939,0.0212402,-0.992554,0.119141
1481271448791755,-0.0186768,0.0217896,-0.992432,0.119873
1481271448814838,-0.0252075,0.0220947,-0.992249,0.120056
1481271448837868,-0.0335693,0.0215454,-0.991943,0.1203
1481271448860799,-0.0424805,0.019043,-0.991638,0.120728
1481271448874787,-0.0534668,0.015564,-0.991089,0.121033
1481271448897866,-0.0599976,0.0132446,-0.990967,0.119385
1481271448912313,-0.0652466,0.0134277,-0.990662,0.119202
1481271448934491,-0.0684814,0.00958252,-0.990417,0.119751
1481271448965492,-0.071167,0.00585938,-0.990234,0.119873
1481271448971489,-0.0678101,0.00610352,-0.990479,0.11969
1481271448994494,-0.0646362,0.00994873,-0.990723,0.119263
1481271449018082,-0.0611572,0.00762939,-0.991028,0.118896
1481271449032056,-0.0599976,0.00592041,-0.991089,0.11908
1481271449054037,-0.0597534,0.00524902,-0.991028,0.119629
1481271449077039,-0.0609741,0.00427246,-0.990906,0.120117
1481271449092036,-0.0611572,0.00415039,-0.990784,0.121155
1481271449114573,-0.0618286,0.00256348,-0.990662,0.121704
1481271449138677,-0.0631714,0.00134277,-0.990601,0.121399
1481271449151612,-0.0619507,0.000183105,-0.990723,0.121399
1481271449174676,-0.0608521,0.000183105,-0.990784,0.12146
1481271449197643,-0.0610352,0.00189209,-0.990723,0.12146
1481271449211641,-0.0609741,0.00158691,-0.990723,0.121704
1481271449234025,-0.0617065,0.000427246,-0.990662,0.122009
1481271449258075,-0.062439,-0.00115967,-0.99054,0.122314
1481271449272028,-0.0627441,-0.000427246,-0.990479,0.122986
1481271449294031,-0.0621338,-0.000305176,-0.99054,0.122803
1481271449318065,-0.0621338,-0.0012207,-0.99054,0.122681
1481271449332049,-0.0626831,-0.00189209,-0.990479,0.122986
1481271449354051,-0.0640259,-0.00146484,-0.990479,0.122375
1481271449377055,-0.0643311,-0.000183105,-0.990479,0.121704
1481271449392054,-0.0644531,0,-0.990601,0.121033
1481271449416137,-0.0648804,-0.000610352,-0.99054,0.120911
1481271449437146,-0.0654297,-0.00109863,-0.99054,0.121033
1481271449452228,-0.0665894,-0.000671387,-0.990479,0.12085
1481271449474155,-0.0685425,-0.000488281,-0.990295,0.121155
1481271449497231,-0.0715942,-0.000671387,-0.990051,0.121521
1481271449512318,-0.0748291,-0.00128174,-0.989746,0.121765
1481271449535937,-0.0775146,-0.00219727,-0.989624,0.121399
1481271449566037,-0.0808105,-0.00299072,-0.98938,0.121033
1481271449572025,-0.0842896,-0.00292969,-0.989197,0.120178
1481271449603019,-0.0893555,-0.00360107,-0.98877,0.119873
1481271449618000,-0.0957031,-0.00415039,-0.98822,0.119629
1481271449633457,-0.104736,-0.00512695,-0.987366,0.119141
1481271449654539,-0.113708,-0.00482178,-0.986511,0.118103
1481271449677542,-0.124451,-0.00402832,-0.985413,0.116272
1481271449692460,-0.136902,-0.00134277,-0.983826,0.115784
1481271449714479,-0.147461,0.00012207,-0.9823,0.115845
1481271449737185,-0.157654,-0.000549316,-0.980713,0.115784
1481271449752198,-0.170166,-0.00469971,-0.978699,0.115051
1481271449776111,-0.185059,-0.00756836,-0.976135,0.113831
1481271449814140,-0.204102,-0.0117188,-0.972473,0.111938
1481271449816638,-0.221069,-0.0167847,-0.968811,0.111206
1481271449842648,-0.236389,-0.0206299,-0.965149,0.110718
1481271449857654,-0.252258,-0.0236206,-0.961121,0.110229
1481271449879717,-0.268311,-0.0275269,-0.956848,0.108643
1481271449894732,-0.286194,-0.0299683,-0.951782,0.106995
1481271449917665,-0.302185,-0.0292969,-0.946899,0.106079
1481271449932336,-0.3172,-0.0301514,-0.941956,0.106262
1481271449954281,-0.332336,-0.0327148,-0.936707,0.105835
1481271449986334,-0.347778,-0.034668,-0.931091,0.104858
1481271449992208,-0.365356,-0.0359497,-0.9245,0.103149
1481271450016252,-0.382446,-0.0378418,-0.917725,0.10083
1481271450037779,-0.398682,-0.038269,-0.910828,0.100403
1481271450053700,-0.414673,-0.0404663,-0.903564,0.100403
1481271450090708,-0.430237,-0.0449829,-0.896118,0.0996094
1481271450096701,-0.445374,-0.0473022,-0.888794,0.0978394
1481271450120296,-0.460571,-0.0506592,-0.88092,0.0967407
1481271450134858,-0.476135,-0.0529175,-0.872742,0.0944824
1481271450158869,-0.49292,-0.0544434,-0.863525,0.0917358
1481271450171805,-0.507935,-0.0562744,-0.854919,0.0895386
1481271450197807,-0.521301,-0.0580444,-0.846863,0.0879517
1481271450225822,-0.534241,-0.0587158,-0.838928,0.0863647
1481271450231827,-0.54425,-0.0595703,-0.832397,0.0860596
1481271450265830,-0.554565,-0.0600586,-0.825745,0.0838623
1481271450276832,-0.565674,-0.0604248,-0.818359,0.0821533
1481271450299834,-0.575134,-0.0608521,-0.811829,0.0811157
1481271450314926,-0.582703,-0.0621948,-0.806335,0.0806274
1481271450336518,-0.591614,-0.0635986,-0.799744,0.0804443
1481271450377618,-0.603516,-0.0640869,-0.790894,0.0790405
1481271450382515,-0.614563,-0.0646973,-0.78241,0.0780029
1481271450398516,-0.626465,-0.0672607,-0.772888,0.0758667
1481271450420565,-0.640442,-0.0664673,-0.761597,0.0740967
1481271450436044,-0.653564,-0.0670166,-0.750183,0.0752563
1481271450467044,-0.667603,-0.0701294,-0.737244,0.0774536
1481271450480059,-0.679626,-0.0732422,-0.725769,0.0778809
1481271450503106,-0.688293,-0.0751953,-0.717224,0.0789795
1481271450517106,-0.697449,-0.0767822,-0.708191,0.0791016
1481271450540098,-0.704834,-0.0787964,-0.700439,0.0802002
1481271450554208,-0.710693,-0.0803223,-0.694092,0.0822754
1481271450586170,-0.716736,-0.0811768,-0.687622,0.083374
1481271450608103,-0.724792,-0.0822144,-0.679016,0.0834351
1481271450614612,-0.733215,-0.0828247,-0.669861,0.0827026
1481271450647794,-0.738525,-0.0852661,-0.663696,0.083313
1481271450659789,-0.743591,-0.0870972,-0.657837,0.0825806
1481271450675790,-0.748352,-0.0889893,-0.652283,0.0814209
1481271450696795,-0.75177,-0.0924072,-0.647949,0.0810547
1481271450720509,-0.753967,-0.0942993,-0.645203,0.0801392
1481271450743465,-0.756226,-0.0966187,-0.642517,0.0780029
1481271450756465,-0.757019,-0.0985107,-0.641418,0.0768433
1481271450779488,-0.757141,-0.0993652,-0.641174,0.0759277
1481271450794464,-0.757629,-0.0996704,-0.640808,0.0740356
1481271450818497,-0.757629,-0.0995483,-0.640991,0.0727539
1481271450848508,-0.758301,-0.0991211,-0.640259,0.0725708
1481271450854507,-0.757751,-0.0995483,-0.640686,0.0737305
1481271450885543,-0.757568,-0.100281,-0.640869,0.0734863
1481271450899568,-0.75769,-0.100098,-0.640869,0.0726318
1481271450925532,-0.756897,-0.0996704,-0.641846,0.0730591
1481271450937312,-0.756592,-0.0990601,-0.64209,0.0745239
1481271450960285,-0.756042,-0.0997925,-0.642578,0.0753174
1481271450974215,-0.75531,-0.10022,-0.643433,0.0743408
1481271450997212,-0.754761,-0.0993042,-0.644287,0.0737915
1481271451029310,-0.753845,-0.098938,-0.645447,0.0734253
1481271451034453,-0.753235,-0.098999,-0.646118,0.0735474
1481271451058458,-0.753052,-0.0991211,-0.64624,0.0741577
1481271451096534,-0.752441,-0.0990601,-0.646973,0.0744019
1481271451098472,-0.752075,-0.0997314,-0.6474,0.0731812
1481271451125533,-0.751221,-0.100342,-0.648438,0.0723267
1481271451139714,-0.750061,-0.100342,-0.649841,0.0717163
1481271451162629,-0.749695,-0.100464,-0.650269,0.0713501
1481271451201633,-0.748413,-0.100037,-0.651917,0.0708008
1481271451203629,-0.746704,-0.100586,-0.653748,0.0706787
1481271451214629,-0.744629,-0.100403,-0.656067,0.0716553
1481271451237153,-0.742981,-0.0997314,-0.657959,0.0721436
1481271451268151,-0.740723,-0.0994873,-0.660522,0.0724487
1481271451274154,-0.738281,-0.0994873,-0.663147,0.0734253
1481271451298152,-0.735107,-0.100098,-0.666382,0.0747681
1481271451319665,-0.732178,-0.0997925,-0.669617,0.0752563
1481271451337841,-0.728638,-0.0982056,-0.673584,0.0762329
1481271451356846,-0.724426,-0.0973511,-0.678101,0.0773926
1481271451379976,-0.721008,-0.0968018,-0.681763,0.078186
1481271451402875,-0.718506,-0.0960083,-0.684326,0.0795898
1481271451417364,-0.715332,-0.0952759,-0.687622,0.0803223
1481271451440929,-0.710571,-0.0945435,-0.692566,0.0812378
1481271451455044,-0.704041,-0.0944824,-0.699097,0.0820923
1481271451485009,-0.698608,-0.0941772,-0.704651,0.0813599
1481271451507942,-0.694763,-0.0917969,-0.708862,0.0803833
1481271451513934,-0.689819,-0.0889893,-0.713867,0.0819702
1481271451544577,-0.682434,-0.0872803,-0.720703,0.0860596
1481271451559563,-0.672729,-0.0871582,-0.729431,0.0886841
1481271451577560,-0.663025,-0.0863037,-0.738403,0.0882568
1481271451596642,-0.652832,-0.0842285,-0.747742,0.0875854
1481271451619574,-0.642029,-0.081604,-0.757263,0.0883789
1481271451659108,-0.627625,-0.0809326,-0.768982,0.0911255
1481271451661109,-0.610168,-0.0788574,-0.782898,0.0928345
1481271451681114,-0.592346,-0.0742798,-0.797058,0.0916138
1481271451694137,-0.576599,-0.0696411,-0.809082,0.0899658
1481271451718639,-0.559814,-0.0653687,-0.821045,0.0913696
1481271451758178,-0.541504,-0.0648804,-0.833069,0.0930786
1481271451762177,-0.525696,-0.0668335,-0.843018,0.0927734
1481271451793180,-0.513306,-0.0651245,-0.850769,0.0924683
1481271451799181,-0.501282,-0.0610352,-0.857971,0.0946045
1481271451824310,-0.486816,-0.0598145,-0.865906,0.0984497
1481271451836871,-0.47113,-0.0606079,-0.874268,0.100281
1481271451859859,-0.456055,-0.0614624,-0.88208,0.101379
1481271451875792,-0.443726,-0.0596924,-0.888428,0.101196
1481271451896875,-0.429749,-0.0546265,-0.895386,0.10321
1481271451927809,-0.411499,-0.0505371,-0.903931,0.105408
1481271451935821,-0.390747,-0.046814,-0.913025,0.107605
1481271451958852,-0.371094,-0.0438843,-0.921387,0.107422
1481271451979895,-0.35199,-0.0396729,-0.929016,0.107483
1481271451996888,-0.328796,-0.0366211,-0.937378,0.109131
1481271452034451,-0.300598,-0.0318604,-0.946716,0.111694
1481271452039530,-0.270935,-0.031189,-0.955383,0.113953
1481271452063450,-0.246521,-0.0256958,-0.961914,0.11554
1481271452076476,-0.222656,-0.0202637,-0.967407,0.119019
1481271452101517,-0.200623,-0.0198975,-0.971924,0.121521
1481271452116128,-0.183472,-0.0170288,-0.975281,0.122314
1481271452137221,-0.169617,-0.0131836,-0.977966,0.121155
1481271452167221,-0.155945,-0.0088501,-0.980225,0.121521
1481271452182144,-0.140869,-0.00402832,-0.982422,0.122681
1481271452205142,-0.129456,-0.000549316,-0.983826,0.12384
1481271452219650,-0.119385,0.00164795,-0.985168,0.123413
1481271452241710,-0.105469,0.00109863,-0.986938,0.122009
1481271452256718,-0.0897827,0.0010376,-0.988647,0.12085
1481271452279713,-0.0757446,0.00384521,-0.989807,0.120728
1481271452312748,-0.0598755,0.00616455,-0.990906,0.120483
1481271452317228,-0.0427856,0.00891113,-0.991577,0.122131
1481271452340765,-0.0279541,0.00964355,-0.991882,0.123901
1481271452361766,-0.0126953,0.0090332,-0.991882,0.126282
1481271452379766,0.00445557,0.00543213,-0.991577,0.129578
1481271452407767,0.0174561,0.00195313,-0.991516,0.128906
1481271452422328,0.0270386,0.00219727,-0.991516,0.127563
1481271452445349,0.0346069,0.00286865,-0.991211,0.128052
1481271452459324,0.0390015,0.00280762,-0.990906,0.128723
1481271452483514,0.0394287,0.00244141,-0.990845,0.129211
1481271452496517,0.0383911,0.00231934,-0.991028,0.128418
1481271452520029,0.0380859,0.00390625,-0.991211,0.127014
1481271452536069,0.0367432,0.00695801,-0.991272,0.126709
1481271452557072,0.0352173,0.00872803,-0.991272,0.127136
1481271452590100,0.0344238,0.0088501,-0.991211,0.127808
1481271452602179,0.0315552,0.00842285,-0.991211,0.128418
1481271452620079,0.0304565,0.00933838,-0.991211,0.128662
1481271452639139,0.0301514,0.010437,-0.991089,0.129456
1481271452662202,0.0291138,0.00952148,-0.991089,0.130005
1481271452685201,0.0274658,0.00860596,-0.99115,0.129944
1481271452699152,0.0262451,0.00878906,-0.99115,0.130188
1481271452723730,0.026062,0.00958252,-0.99115,0.130188
1481271452744605,0.0259399,0.0111084,-0.99115,0.130066
1481271452760619,0.026001,0.0124512,-0.99115,0.1297
1481271452790600,0.0267944,0.0122681,-0.991211,0.129333
1481271452798527,0.0258789,0.0114136,-0.991272,0.129028
1481271452828065,0.0250244,0.0115356,-0.991333,0.128723
1481271452842058,0.0259399,0.0126343,-0.991333,0.12854
1481271452867063,0.0268555,0.0132446,-0.991333,0.128235
1481271452879060,0.0262451,0.0133057,-0.991333,0.128113
1481271452902136,0.0245972,0.0131226,-0.991455,0.127747
1481271452918669,0.0228271,0.0134277,-0.991516,0.127441
1481271452939727,0.0216675,0.0161743,-0.991638,0.126587
1481271452963724,0.0209961,0.0202637,-0.991577,0.126343
1481271452978725,0.0187988,0.0246582,-0.991455,0.126709
1481271453001743,0.0155029,0.0296631,-0.991272,0.127563
1481271453022315,0.0123291,0.0343628,-0.991211,0.12738
1481271453040313,0.010376,0.0394897,-0.990967,0.12793
1481271453067395,0.00897217,0.0441895,-0.990723,0.128174
1481271453082329,0.00732422,0.0487061,-0.990417,0.129028
1481271453106324,0.00305176,0.0550537,-0.990051,0.129639
1481271453119899,-0.000305176,0.0615845,-0.989624,0.130005
1481271453144872,-0.00396729,0.069519,-0.989136,0.129822
1481271453158940,-0.00634766,0.0772095,-0.988586,0.129333
1481271453180004,-0.00909424,0.0853882,-0.987915,0.129211
1481271453209873,-0.0107422,0.0939941,-0.987122,0.129028
1481271453218385,-0.0117188,0.103455,-0.986206,0.128845
1481271453242397,-0.0148926,0.113037,-0.985168,0.12854
1481271453262433,-0.0189209,0.121399,-0.984253,0.127319
1481271453279462,-0.0217896,0.131165,-0.983215,0.125305
1481271453302401,-0.0218506,0.140503,-0.982056,0.124084
1481271453322493,-0.0224609,0.151672,-0.98053,0.122803
1481271453346454,-0.0245361,0.163879,-0.97876,0.12085
1481271453359434,-0.0267334,0.174988,-0.976807,0.120789
1481271453383482,-0.0292969,0.186646,-0.974609,0.120483
1481271453398426,-0.0322876,0.198059,-0.972473,0.11853
1481271453422435,-0.0350952,0.211731,-0.969849,0.115723
1481271453450539,-0.0376587,0.22699,-0.966431,0.114563
1481271453458447,-0.0386963,0.241882,-0.962769,0.114746
1481271453487446,-0.0394287,0.257507,-0.958618,0.115112
1481271453502514,-0.0413208,0.276245,-0.95343,0.114136
1481271453519954,-0.0447998,0.296875,-0.947266,0.111938
1481271453539464,-0.0463257,0.314758,-0.941528,0.110901
1481271453562531,-0.0455322,0.332336,-0.935547,0.110657
1481271453579466,-0.0456543,0.34967,-0.92926,0.110168
1481271453599486,-0.0498657,0.368713,-0.921753,0.109253
1481271453621975,-0.0524902,0.382507,-0.915955,0.109436
1481271453638488,-0.0543823,0.397156,-0.909668,0.108948
1481271453659503,-0.0567017,0.413757,-0.902161,0.108215
1481271453683489,-0.0608521,0.429626,-0.894409,0.108337
1481271453698493,-0.0650635,0.442993,-0.887756,0.107178
1481271453721113,-0.0681763,0.45636,-0.880859,0.105835
1481271453741645,-0.0715332,0.470642,-0.87323,0.104126
1481271453758646,-0.0753174,0.486084,-0.864563,0.103333
1481271453780718,-0.0772095,0.501526,-0.855652,0.102051
1481271453801717,-0.078125,0.516541,-0.846802,0.100342
1481271453818666,-0.079895,0.533203,-0.836304,0.0995483
1481271453840724,-0.0808105,0.549194,-0.825806,0.0993042
1481271453861732,-0.081543,0.563171,-0.816162,0.100342
1481271453878727,-0.0821533,0.57782,-0.805786,0.100769
1481271453900798,-0.0821533,0.592285,-0.795166,0.10083
1481271453924842,-0.0821533,0.605164,-0.785461,0.100586
1481271453938951,-0.0831299,0.61676,-0.776245,0.100769
1481271453960895,-0.0834351,0.627441,-0.767517,0.101013
1481271453981894,-0.085083,0.637756,-0.758911,0.100403
1481271454003976,-0.0873413,0.646545,-0.751282,0.0995483
1481271454021477,-0.0879517,0.655823,-0.743164,0.0993652
1481271454042491,-0.0888672,0.662659,-0.736877,0.0998535
1481271454064451,-0.0905762,0.66925,-0.730652,0.100525
1481271454081494,-0.093811,0.677063,-0.723145,0.0991211
1481271454102529,-0.0958862,0.684082,-0.716492,0.0973511
1481271454133009,-0.0983887,0.690369,-0.710205,0.0965576
1481271454141199,-0.100281,0.696594,-0.703918,0.0961914
1481271454162295,-0.104004,0.702942,-0.697205,0.0943604
1481271454184215,-0.106567,0.710388,-0.689453,0.0927734
1481271454201209,-0.108765,0.717041,-0.682434,0.0911255
1481271454222215,-0.110229,0.723633,-0.675293,0.090271
1481271454244731,-0.110291,0.73053,-0.667847,0.0903931
1481271454260726,-0.110779,0.736816,-0.660889,0.0899048
1481271454281732,-0.111755,0.742859,-0.654114,0.0883179
1481271454304800,-0.113708,0.748108,-0.64801,0.0862427
1481271454321238,-0.115662,0.752563,-0.642639,0.0848999
1481271454341751,-0.11731,0.757141,-0.637207,0.083374
1481271454364753,-0.118103,0.760376,-0.63324,0.0827637
1481271454380759,-0.119263,0.763,-0.629944,0.0823364
1481271454401829,-0.11969,0.764343,-0.628235,0.0825806
1481271454424763,-0.119812,0.764221,-0.628296,0.0827637
1481271454441528,-0.118774,0.76416,-0.628357,0.0839844
1481271454462627,-0.118042,0.763794,-0.628784,0.0854492
1481271454484523,-0.11731,0.762207,-0.630615,0.0870972
1481271454500531,-0.116699,0.761169,-0.631897,0.0880127
1481271454522579,-0.116394,0.759521,-0.633789,0.0888062
1481271454544005,-0.115723,0.758972,-0.634399,0.0900269
1481271454560926,-0.115662,0.758057,-0.635498,0.09021
1481271454582999,-0.115417,0.757629,-0.636047,0.0897827
1481271454605049,-0.115662,0.757141,-0.636597,0.0897827
1481271454621010,-0.116211,0.756653,-0.637146,0.0894165
1481271454641519,-0.116638,0.75647,-0.637329,0.0891724
1481271454664590,-0.116272,0.756287,-0.637634,0.0892334
1481271454681590,-0.115906,0.75531,-0.638794,0.0895386
1481271454703524,-0.115967,0.754395,-0.639832,0.0894775
1481271454724541,-0.117065,0.753357,-0.640991,0.0888672
1481271454741583,-0.117798,0.752258,-0.642273,0.0878296
1481271454763549,-0.118713,0.751526,-0.643066,0.0874023
1481271454784555,-0.118469,0.752014,-0.642517,0.0874023
1481271454801615,-0.117798,0.752136,-0.642517,0.0870361
1481271454823577,-0.117432,0.751831,-0.642944,0.0870972
1481271454844119,-0.117615,0.751587,-0.643127,0.0875854
1481271454861116,-0.11676,0.75116,-0.643677,0.0881348
1481271454883123,-0.114624,0.750793,-0.644409,0.0888672
1481271454904219,-0.112671,0.750366,-0.645081,0.0899048
1481271454921308,-0.112061,0.74884,-0.646912,0.0908203
1481271454943405,-0.111938,0.747681,-0.648193,0.0912476
1481271454967412,-0.111694,0.746765,-0.64917,0.0917969
1481271454980500,-0.110901,0.745911,-0.650208,0.0921021
1481271455003399,-0.109619,0.745239,-0.651184,0.0925903
1481271455024948,-0.109253,0.744385,-0.652161,0.0927734
1481271455041488,-0.109619,0.743286,-0.65332,0.0928955
1481271455070558,-0.109375,0.742737,-0.654053,0.0928345
1481271455084552,-0.108521,0.741699,-0.655273,0.0933228
1481271455101516,-0.107605,0.740784,-0.656433,0.093689
1481271455123548,-0.106628,0.739868,-0.657532,0.0942993
1481271455144060,-0.106506,0.738831,-0.658691,0.0945435
1481271455161058,-0.106018,0.738037,-0.659546,0.0950317
1481271455183099,-0.105896,0.736816,-0.660828,0.0958252
1481271455204065,-0.104858,0.735718,-0.66217,0.0964966
1481271455221152,-0.104431,0.733826,-0.664246,0.0966187
1481271455245158,-0.103638,0.731995,-0.666321,0.09729
1481271455264158,-0.102783,0.730347,-0.66803,0.0987549
1481271455281159,-0.101746,0.72821,-0.670349,0.0999756
1481271455303232,-0.100159,0.725464,-0.673462,0.100891
1481271455324670,-0.098938,0.721924,-0.677246,0.101807
1481271455340707,-0.0980225,0.718201,-0.681152,0.102722
1481271455363715,-0.0967407,0.713501,-0.686157,0.103821
1481271455384792,-0.0948486,0.707581,-0.6922,0.105652
1481271455400779,-0.0928345,0.700867,-0.699097,0.107056
1481271455423722,-0.0906982,0.692749,-0.707275,0.10791
1481271455444866,-0.0875854,0.684814,-0.715149,0.109009
1481271455460763,-0.0830078,0.674316,-0.725342,0.111084
1481271455483834,-0.0792847,0.663574,-0.735229,0.113159
1481271455504900,-0.0759277,0.651978,-0.745605,0.115173
1481271455521363,-0.0725708,0.638672,-0.756958,0.117859
1481271455543087,-0.0703735,0.62262,-0.769958,0.120667
1481271455566070,-0.0680542,0.605286,-0.783447,0.123291
1481271455581071,-0.0649414,0.58783,-0.796448,0.125977
1481271455605076,-0.0612183,0.570251,-0.808899,0.129395
1481271455642633,-0.0574341,0.552734,-0.820618,0.133545
1481271455646607,-0.055481,0.533875,-0.832703,0.136047
1481271455670653,-0.0546265,0.514343,-0.844727,0.137451
1481271455685637,-0.0535278,0.493225,-0.857117,0.138916
1481271455708598,-0.0526123,0.472595,-0.868591,0.139343
1481271455723608,-0.0512695,0.452881,-0.879028,0.139893
1481271455745623,-0.0491333,0.432068,-0.889404,0.140991
1481271455762618,-0.0479736,0.411011,-0.899353,0.141479
1481271455783619,-0.0463867,0.390259,-0.908508,0.14209
1481271455813621,-0.0424194,0.369568,-0.917175,0.142883
1481271455827137,-0.039856,0.350281,-0.924866,0.142822
1481271455844646,-0.039856,0.330872,-0.931946,0.142883
1481271455865650,-0.0394287,0.312561,-0.938293,0.1427
1481271455886655,-0.0378418,0.294373,-0.944397,0.141846
1481271455918717,-0.0355225,0.277832,-0.949463,0.141663
1481271455926163,-0.0324707,0.26123,-0.954163,0.142578
1481271455949673,-0.0294189,0.24469,-0.958435,0.14386
1481271455963675,-0.0280151,0.228455,-0.962402,0.144409
1481271455987676,-0.0274658,0.213806,-0.96582,0.143982
1481271456015680,-0.0287476,0.20105,-0.96875,0.142639
1481271456022695,-0.027832,0.186768,-0.971619,0.1427
1481271456052783,-0.0270996,0.173096,-0.974121,0.143005
1481271456067798,-0.0274048,0.160217,-0.976257,0.143372
1481271456089771,-0.0285034,0.148193,-0.978149,0.14325
1481271456105721,-0.0303345,0.137085,-0.979858,0.142151
1481271456127854,-0.031311,0.127502,-0.981384,0.140503
1481271456142950,-0.0302734,0.117615,-0.982788,0.139465
1481271456164865,-0.0307007,0.106506,-0.984009,0.139771
1481271456196920,-0.0344849,0.0941162,-0.985413,0.137756
1481271456202933,-0.0383911,0.0836792,-0.986328,0.136841
1481271456226437,-0.0384521,0.0739746,-0.987122,0.13678
1481271456248018,-0.036377,0.062439,-0.987793,0.138306
1481271456263948,-0.0355835,0.0523682,-0.988342,0.138733
1481271456293014,-0.0362549,0.0439453,-0.988892,0.137573
1481271456308018,-0.0352173,0.0344238,-0.98938,0.13678
1481271456330525,-0.0360107,0.0258789,-0.989807,0.135742
1481271456345080,-0.0390015,0.0179443,-0.990051,0.134033
1481271456368983,-0.0405273,0.0109253,-0.990173,0.133606
1481271456383045,-0.0390625,0.00482178,-0.990295,0.133606
1481271456405075,-0.0362549,-0.00250244,-0.990295,0.134338
1481271456435504,-0.0344238,-0.00854492,-0.990112,0.135864
1481271456442687,-0.0343628,-0.0148315,-0.989929,0.136902
1481271456473721,-0.0351563,-0.0192871,-0.989807,0.136902
1481271456487779,-0.0372925,-0.0222168,-0.989929,0.135193
1481271456504694,-0.0380249,-0.0238647,-0.990051,0.133728
1481271456525199,-0.036377,-0.0272827,-0.990112,0.132996
1481271456547226,-0.0350342,-0.0270386,-0.990234,0.132446
1481271456570212,-0.0337524,-0.0261841,-0.990295,0.132446
1481271456585302,-0.0331421,-0.0239258,-0.990417,0.132141
1481271456609211,-0.032959,-0.0216675,-0.990601,0.131104
1481271456622722,-0.0325928,-0.0205078,-0.990784,0.130066
1481271456646305,-0.0332031,-0.0177612,-0.990967,0.129089
1481271456675332,-0.0337524,-0.0150146,-0.990967,0.128967
1481271456684314,-0.0335083,-0.0141602,-0.990906,0.1297
1481271456712398,-0.0336304,-0.015564,-0.990784,0.13031
1481271456751869,-0.0335083,-0.0147705,-0.990906,0.129578
1481271456754866,-0.0330811,-0.0115356,-0.991089,0.128601
1481271456764970,-0.0326538,-0.00909424,-0.991211,0.128052
1481271456787953,-0.0321655,-0.0078125,-0.991211,0.128479
1481271456803879,-0.0325928,-0.00787354,-0.991089,0.129272
1481271456825527,-0.0322876,-0.00726318,-0.991028,0.129517
1481271456851066,-0.0320435,-0.00640869,-0.991089,0.129333
1481271456863999,-0.0321655,-0.00543213,-0.991089,0.12915
1481271456887069,-0.0321655,-0.00640869,-0.99115,0.128784
1481271456908068,-0.031311,-0.00683594,-0.99115,0.128967
1481271456924597,-0.0283203,-0.00720215,-0.991211,0.129272
1481271456953252,-0.0252075,-0.00732422,-0.991272,0.129395
1481271456968270,-0.0228882,-0.00732422,-0.991333,0.129333
1481271456991209,-0.0213623,-0.00756836,-0.991333,0.129578
1481271457030240,-0.020813,-0.00714111,-0.991394,0.129395
1481271457032278,-0.0198364,-0.00689697,-0.991333,0.129761
1481271457044543,-0.0187988,-0.00787354,-0.991333,0.130127
1481271457065611,-0.0185547,-0.00939941,-0.991272,0.13031
1481271457095585,-0.0175171,-0.0106812,-0.991211,0.130737
1481271457104568,-0.0172729,-0.0118408,-0.991272,0.13031
1481271457128142,-0.0174561,-0.012207,-0.991333,0.130066
1481271457147666,-0.0180664,-0.0136108,-0.991211,0.130432
1481271457163765,-0.0177002,-0.0161743,-0.99115,0.130981
1481271457184665,-0.0162354,-0.0177002,-0.991028,0.131714
1481271457207663,-0.0162354,-0.0186157,-0.991028,0.131714
1481271457231676,-0.0183716,-0.0204468,-0.991028,0.130981
1481271457245189,-0.0189819,-0.0230103,-0.991028,0.130676
1481271457269189,-0.0188599,-0.0263672,-0.990967,0.13031
1481271457283192,-0.0169067,-0.031189,-0.990967,0.129639
1481271457305197,-0.0136719,-0.0357666,-0.991089,0.12793
1481271457335211,-0.0116577,-0.0386353,-0.991272,0.125916
1481271457350373,-0.00805664,-0.0438232,-0.991272,0.12439
1481271457373220,-0.00616455,-0.0501099,-0.991272,0.121826
1481271457388238,-0.00488281,-0.0570068,-0.991272,0.118958
1481271457412285,-0.00195313,-0.0640259,-0.991211,0.116211
1481271457425314,0.00115967,-0.0722046,-0.990906,0.113831
1481271457447854,0.00372314,-0.0819092,-0.990356,0.111694
1481271457477866,0.00695801,-0.0925293,-0.989502,0.110779
1481271457484932,0.0114746,-0.105164,-0.988281,0.110291
1481271457508921,0.0153198,-0.118103,-0.986816,0.10968
1481271457530376,0.0180054,-0.13385,-0.984863,0.109009
1481271457547027,0.0229492,-0.150269,-0.982544,0.107666
1481271457582966,0.0281982,-0.165344,-0.980103,0.106628
1481271457589961,0.034668,-0.180542,-0.977234,0.105957
1481271457606088,0.0418701,-0.197266,-0.973755,0.105652
1481271457628036,0.0469971,-0.212769,-0.970398,0.104614
1481271457651096,0.0480957,-0.228699,-0.966797,0.103394
1481271457667080,0.0480347,-0.244141,-0.963074,0.102966
1481271457688098,0.0487671,-0.258972,-0.959106,0.10376
1481271457718152,0.0519409,-0.274475,-0.954529,0.104309
1481271457727069,0.053772,-0.289673,-0.950012,0.103821
1481271457755140,0.0545654,-0.304565,-0.945313,0.10321
1481271457770215,0.055603,-0.320435,-0.940002,0.103271
1481271457787204,0.055603,-0.337769,-0.934021,0.1026
1481271457807142,0.057251,-0.355774,-0.927124,0.103027
1481271457830689,0.0598755,-0.373779,-0.9198,0.103699
1481271457863214,0.0609741,-0.394287,-0.911133,0.103638
1481271457867217,0.0601807,-0.414063,-0.902222,0.105042
1481271457899214,0.05896,-0.431458,-0.89386,0.106812
1481271457907279,0.0582886,-0.449158,-0.885132,0.10675
1481271457929301,0.0596924,-0.465332,-0.876648,0.106995
1481271457967657,0.0627441,-0.481934,-0.867615,0.105347
1481271457969630,0.0645752,-0.498901,-0.858032,0.103577
1481271457994662,0.06604,-0.514343,-0.848877,0.102966
1481271458009635,0.0675049,-0.527649,-0.840698,0.10199
1481271458034647,0.0668945,-0.540161,-0.832642,0.102539
1481271458047790,0.0650024,-0.553162,-0.824158,0.103394
1481271458069802,0.0647583,-0.564758,-0.816223,0.103516
1481271458086684,0.0640869,-0.576294,-0.808228,0.102966
1481271458107690,0.0627441,-0.586548,-0.800842,0.10376
1481271458139777,0.06073,-0.597595,-0.792542,0.105896
1481271458146745,0.0592041,-0.607117,-0.785156,0.107422
1481271458169782,0.0582275,-0.615784,-0.778381,0.107971
1481271458189744,0.0567627,-0.624451,-0.771606,0.107117
1481271458206745,0.0552979,-0.633301,-0.764587,0.106506
1481271458235321,0.0552368,-0.641235,-0.758057,0.105835
1481271458249970,0.0579834,-0.646973,-0.753174,0.104309
1481271458273971,0.0613403,-0.653198,-0.748169,0.0994263
1481271458288039,0.0646362,-0.659119,-0.743042,0.0966187
1481271458312043,0.0640259,-0.664307,-0.738708,0.0947876
1481271458327055,0.0629272,-0.66864,-0.735046,0.0933838
1481271458347583,0.0614014,-0.672485,-0.731628,0.093689
1481271458377608,0.0598755,-0.676758,-0.7276,0.0952759
1481271458386532,0.0577393,-0.680115,-0.724243,0.0982666
1481271458416512,0.053894,-0.6828,-0.72168,0.100769
1481271458430603,0.0517578,-0.686523,-0.718018,0.102295
1481271458446604,0.0508423,-0.691162,-0.713562,0.102783
1481271458467652,0.0496216,-0.695923,-0.709106,0.102478
1481271458490636,0.0500488,-0.701111,-0.703796,0.103027
1481271458514637,0.050415,-0.707642,-0.697449,0.101868
1481271458528176,0.0502319,-0.713623,-0.691162,0.102661
1481271458552310,0.0505981,-0.720825,-0.683777,0.101746
1481271458566315,0.0529785,-0.729858,-0.674194,0.100037
1481271458590292,0.0559082,-0.736877,-0.666687,0.0975342
1481271458617425,0.0569458,-0.742615,-0.6604,0.0960083
1481271458626325,0.0582886,-0.746155,-0.656494,0.0944824
1481271458656826,0.0593872,-0.749268,-0.653076,0.0928345
1481271458669908,0.0601196,-0.751099,-0.651062,0.0917969
1481271458694833,0.0603638,-0.750854,-0.651428,0.0908203
1481271458708828,0.0610352,-0.750122,-0.652466,0.0888672
1481271458730414,0.0629272,-0.748901,-0.653931,0.0872803
1481271458745921,0.0646973,-0.748413,-0.654541,0.0859985
1481271458768991,0.0658569,-0.748291,-0.654602,0.0852661
1481271458791928,0.0656128,-0.748535,-0.654358,0.085144
1481271458805926,0.0637817,-0.748657,-0.654358,0.0859985
1481271458829442,0.0629883,-0.748535,-0.654541,0.0861206
1481271458852016,0.0631714,-0.748535,-0.654602,0.0856934
1481271458866954,0.0638428,-0.748718,-0.654358,0.0852051
1481271458896960,0.064209,-0.749084,-0.653931,0.0848999
1481271458910023,0.0634155,-0.749084,-0.653931,0.0854492
1481271458934540,0.062561,-0.748718,-0.654358,0.0858154
1481271458948992,0.0629883,-0.74823,-0.655029,0.085144
1481271458972052,0.0643311,-0.747986,-0.655273,0.0841675
1481271458985990,0.0653687,-0.747559,-0.65564,0.0839233
1481271459009041,0.0654297,-0.746948,-0.656372,0.0841064
1481271459038069,0.0651245,-0.746216,-0.657227,0.0841675
1481271459045910,0.0647583,-0.745972,-0.657532,0.0841675
1481271459068991,0.0639038,-0.745483,-0.65802,0.0848389
1481271459089921,0.0632935,-0.744629,-0.658997,0.0855103
1481271459105913,0.0633545,-0.742432,-0.661499,0.0853271
1481271459129436,0.0626221,-0.73938,-0.664917,0.0856934
1481271459149945,0.0615234,-0.735779,-0.669006,0.0858765
1481271459173943,0.0608521,-0.730591,-0.674622,0.086731
1481271459188951,0.0605469,-0.725037,-0.680542,0.0870361
1481271459211981,0.0603638,-0.718567,-0.687378,0.0872803
1481271459226472,0.0601196,-0.711975,-0.694092,0.0883789
1481271459250987,0.0599976,-0.705505,-0.7005,0.0895386
1481271459278039,0.0599365,-0.699646,-0.706238,0.090332
1481271459285978,0.0599976,-0.693848,-0.711853,0.0912476
1481271459317009,0.0598755,-0.688293,-0.717163,0.092041
1481271459330551,0.0606689,-0.682373,-0.722778,0.0917358
1481271459345994,0.0619507,-0.675232,-0.72937,0.0913086
1481271459368999,0.0629272,-0.666443,-0.737366,0.0910034
1481271459389996,0.0621948,-0.657898,-0.745056,0.0910034
1481271459405997,0.0614014,-0.648132,-0.753601,0.0910645
1481271459429081,0.0603638,-0.638489,-0.761902,0.0909424
1481271459451031,0.0586548,-0.627197,-0.771423,0.0906982
1481271459466029,0.0564575,-0.615845,-0.780579,0.0916138
1481271459488095,0.0546875,-0.604065,-0.789673,0.0929565
1481271459528044,0.0521851,-0.591309,-0.799255,0.0941162
1481271459533078,0.0491943,-0.577332,-0.809509,0.0947876
1481271459557056,0.0462036,-0.562805,-0.819824,0.0951538
1481271459572127,0.0438232,-0.546936,-0.830627,0.09552
1481271459586060,0.0415039,-0.531494,-0.840637,0.0958252
1481271459608159,0.039917,-0.514282,-0.85144,0.0950928
1481271459632196,0.0388794,-0.497192,-0.861694,0.0939331
1481271459646040,0.0379639,-0.478882,-0.87207,0.093811
1481271459668108,0.0361938,-0.460754,-0.881775,0.0944824
1481271459691041,0.0336304,-0.443481,-0.890625,0.0952148
1481271459706042,0.0300293,-0.426147,-0.899048,0.0961914
1481271459728551,0.026001,-0.407837,-0.90741,0.0985107
1481271459751143,0.0224609,-0.388611,-0.91571,0.100159
1481271459773060,0.0197144,-0.367737,-0.924316,0.100525
1481271459789063,0.0162964,-0.3479,-0.931946,0.101135
1481271459812126,0.0118408,-0.327942,-0.939087,0.102478
1481271459833141,0.00817871,-0.308777,-0.945496,0.103516
1481271459848789,0.00579834,-0.286804,-0.952332,0.103943
1481271459871786,0.00488281,-0.266174,-0.958313,0.104065
1481271459892869,0.00384521,-0.247681,-0.963135,0.105103
1481271459914867,0.00195313,-0.229004,-0.96759,0.106628
1481271459932309,-0.000427246,-0.209595,-0.971863,0.107605
1481271459960025,-0.00231934,-0.190308,-0.97583,0.107971
1481271459969017,-0.00341797,-0.170959,-0.97937,0.108215
1481271459991951,-0.00524902,-0.150574,-0.982544,0.109192
1481271460013018,-0.00854492,-0.129211,-0.985535,0.109741
1481271460029033,-0.0125122,-0.108276,-0.987915,0.110657
1481271460052170,-0.0159302,-0.0904541,-0.989685,0.110352
1481271460073169,-0.0192871,-0.0703735,-0.991272,0.110291
1481271460088197,-0.0214233,-0.0507202,-0.992249,0.111694
1481271460112175,-0.0219727,-0.0319214,-0.992798,0.113525
1481271460133209,-0.0233154,-0.0135498,-0.993103,0.114441
1481271460148531,-0.024292,0.00256348,-0.993164,0.114563
1481271460171534,-0.027771,0.0183105,-0.992981,0.113586
1481271460192537,-0.0321045,0.0336914,-0.992554,0.113037
1481271460208534,-0.0350342,0.0458984,-0.991882,0.113525
1481271460232067,-0.0353394,0.0542603,-0.991211,0.115356
1481271460252750,-0.0333862,0.0585938,-0.990784,0.117493
1481271460268754,-0.03125,0.0552368,-0.990784,0.11969
1481271460291753,-0.0302124,0.0506592,-0.990845,0.121521
1481271460312752,-0.0314941,0.0469971,-0.990967,0.121765
1481271460328768,-0.0322266,0.0419312,-0.99115,0.121948
1481271460350993,-0.0309448,0.0375366,-0.991272,0.122742
1481271460373029,-0.0285645,0.0331421,-0.991455,0.123169
1481271460388070,-0.0264893,0.0300903,-0.991516,0.123779
1481271460411002,-0.0264893,0.0303345,-0.991455,0.124268
1481271460433078,-0.0286255,0.0314331,-0.991394,0.124268
1481271460448520,-0.0305176,0.0324097,-0.991272,0.124207
1481271460471587,-0.0307617,0.0339355,-0.991211,0.124268
1481271460494588,-0.0294189,0.0343018,-0.991211,0.124451
1481271460516532,-0.0270996,0.0324707,-0.991333,0.124817
1481271460531107,-0.0256348,0.0299683,-0.991455,0.124634
1481271460554316,-0.0262451,0.0280762,-0.991516,0.124512
1481271460568381,-0.02771,0.0273438,-0.991516,0.124329
1481271460591317,-0.0284424,0.0282593,-0.991455,0.124146
1481271460621310,-0.0270996,0.0281372,-0.991577,0.123901
1481271460628888,-0.0255737,0.0268555,-0.991577,0.124084
1481271460650901,-0.0250854,0.0258789,-0.991577,0.124817
1481271460673834,-0.0259399,0.0244751,-0.991516,0.125
1481271460688901,-0.0272217,0.0236206,-0.991577,0.124817
1481271460710852,-0.0273438,0.0221558,-0.991638,0.124268
1481271460734423,-0.0263062,0.0214844,-0.991699,0.12439
1481271460748493,-0.0250244,0.0200806,-0.991638,0.125122
1481271460771559,-0.0245361,0.0184937,-0.991638,0.125427
1481271460794530,-0.0251465,0.019043,-0.991638,0.125366
1481271460808497,-0.0255737,0.019165,-0.991638,0.125183
1481271460831652,-0.0252075,0.0194092,-0.991699,0.124939
1481271460854100,-0.0247192,0.0192871,-0.991699,0.125
1481271460876100,-0.0244751,0.0183105,-0.991699,0.125061
1481271460891099,-0.0245361,0.0177612,-0.99176,0.124695
1481271460914102,-0.0249023,0.0171509,-0.99176,0.124512
1481271460929150,-0.0254517,0.0174561,-0.99176,0.124329
1481271460951716,-0.0262451,0.017395,-0.99176,0.124451
1481271460981655,-0.0266113,0.0162964,-0.99176,0.124329
1481271460994783,-0.0264282,0.0167847,-0.99176,0.12439
1481271461010725,-0.0263062,0.0178223,-0.991699,0.124695
1481271461034172,-0.0270996,0.0187378,-0.991638,0.124939
1481271461055187,-0.0280762,0.0192261,-0.991577,0.125061
1481271461072205,-0.0283203,0.0195923,-0.991577,0.125183
1481271461093911,-0.0278931,0.0189209,-0.991577,0.125488
1481271461116781,-0.0275269,0.0177612,-0.991455,0.126221
1481271461131352,-0.0280762,0.0167847,-0.991333,0.127502
1481271461154367,-0.0285645,0.0154419,-0.99115,0.128723
1481271461175364,-0.0285034,0.0141602,-0.991089,0.1297
1481271461191364,-0.0283203,0.0129395,-0.990906,0.131042
1481271461214365,-0.027832,0.012146,-0.990845,0.131836
1481271461235382,-0.0272827,0.0123901,-0.990601,0.133484
1481271461251454,-0.0265503,0.0131226,-0.990356,0.135742
1481271461281459,-0.0266113,0.0131836,-0.98999,0.138306
1481271461295472,-0.0261841,0.0143433,-0.989563,0.141357
1481271461311396,-0.0233154,0.0151978,-0.988831,0.146484
1481271461333407,-0.0184937,0.010376,-0.987793,0.154663
1481271461355029,-0.0120239,0.0131226,-0.986328,0.164124
1481271461371024,-0.00854492,0.0150146,-0.984253,0.176208
1481271461402092,-0.00482178,0.00750732,-0.981812,0.189697
1481271461417092,-0.00305176,0.00128174,-0.979614,0.201111
1481271461431038,-0.00384521,-0.00231934,-0.977234,0.212158
1481271461454665,-0.000915527,-0.00714111,-0.974731,0.223267
1481271461477669,0.0022583,-0.0149536,-0.971375,0.237244
1481271461490635,0.00518799,-0.0196533,-0.966797,0.254761
1481271461513609,0.00616455,-0.0184326,-0.96167,0.273621
1481271461537303,0.00726318,-0.0169067,-0.956177,0.292297
1481271461550799,0.00744629,-0.0172729,-0.9505,0.310242
1481271461581770,0.00585938,-0.0181274,-0.944641,0.327576
1481271461596769,0.00604248,-0.0178833,-0.939087,0.343262
1481271461610769,0.00402832,-0.0172729,-0.933105,0.359192
1481271461633791,-0.00128174,-0.0168457,-0.92627,0.376465
1481271461656933,-0.00622559,-0.0169678,-0.917114,0.398315
1481271461670935,-0.0124512,-0.0125122,-0.906433,0.421936
1481271461693937,-0.0180054,-0.000793457,-0.895569,0.444641
1481271461716942,-0.0249023,0.00689697,-0.884094,0.466614
1481271461739450,-0.027771,0.0057373,-0.874695,0.483887
1481271461754029,-0.0264282,0.00164795,-0.865601,0.5
1481271461776962,-0.0247803,0.00152588,-0.857483,0.513916
1481271461804972,-0.0297241,0.00695801,-0.849915,0.526001
1481271461814031,-0.0372314,0.0131836,-0.84137,0.539063
1481271461844006,-0.0401001,0.0162354,-0.832642,0.552185
1481271461858077,-0.038208,0.0127563,-0.822571,0.567261
1481271461873072,-0.0371704,0.00604248,-0.809875,0.585388
1481271461897043,-0.0368652,-0.00177002,-0.796387,0.603638
1481271461918113,-0.0350952,-0.00848389,-0.783508,0.620361
1481271461934093,-0.0313721,-0.0123901,-0.77179,0.63501
1481271461956041,-0.0255737,-0.0140381,-0.761475,0.647583
1481271461978171,-0.0230713,-0.0128174,-0.751709,0.658936
1481271461993143,-0.0224609,-0.00994873,-0.742065,0.669861
1481271462017106,-0.0193481,-0.00891113,-0.733826,0.679016
1481271462038131,-0.0169067,-0.00805664,-0.72406,0.689514
1481271462053203,-0.0109863,-0.0108032,-0.709412,0.704651
1481271462076169,-0.00769043,-0.0142212,-0.691711,0.721985
1481271462098137,-0.00958252,-0.0142212,-0.674744,0.737854
1481271462113124,-0.0133667,-0.010437,-0.660645,0.750549
1481271462136589,-0.0132446,-0.00494385,-0.647583,0.761841
1481271462158128,-0.0100708,-0.00109863,-0.637024,0.770752
1481271462174095,-0.0103149,0.00408936,-0.627625,0.778442
1481271462196101,-0.0131836,0.00939941,-0.618347,0.785706
1481271462218161,-0.0178223,0.0105591,-0.607361,0.794128
1481271462233608,-0.0201416,0.00720215,-0.595703,0.802917
1481271462257118,-0.0176392,0.00140381,-0.587708,0.808899
1481271462285153,-0.0175171,-0.00146484,-0.579468,0.814819
1481271462293132,-0.0209351,-0.00134277,-0.572144,0.819885
1481271462316121,-0.0265503,-0.00195313,-0.565613,0.824219
1481271462338167,-0.0308838,-0.00439453,-0.558167,0.829102
1481271462353141,-0.0332031,-0.00762939,-0.551575,0.833435
1481271462376144,-0.0348511,-0.00933838,-0.549011,0.835022
1481271462399146,-0.0354614,-0.00793457,-0.549561,0.834656
1481271462413145,-0.0348511,-0.00622559,-0.55011,0.834351
1481271462436158,-0.03479,-0.00488281,-0.550842,0.833862
1481271462459168,-0.0366821,-0.0022583,-0.551941,0.833069
1481271462473169,-0.0370483,-0.000549316,-0.55304,0.832336
1481271462496170,-0.0339355,-0.00189209,-0.554199,0.831665
1481271462519176,-0.0324707,-0.00170898,-0.556091,0.830444
1481271462533680,-0.034668,0.00231934,-0.558228,0.828979
1481271462556184,-0.0358276,0.00469971,-0.559143,0.828308
1481271462579185,-0.0359497,0.0043335,-0.558716,0.828552
1481271462593221,-0.0346069,0.00250244,-0.558228,0.828979
1481271462616188,-0.0335083,0.00299072,-0.559265,0.828308
1481271462639204,-0.0351563,0.00579834,-0.559692,0.827881
1481271462653746,-0.0354614,0.00634766,-0.559387,0.828125
1481271462675762,-0.0344238,0.00494385,-0.559143,0.828369
1481271462722770,-0.0332031,0.00421143,-0.559326,0.828247
1481271462722770,-0.0328979,0.00494385,-0.559814,0.827942
1481271462742864,-0.0332642,0.00579834,-0.560425,0.827515
1481271462759819,-0.0331421,0.00683594,-0.56134,0.826843
1481271462773915,-0.032959,0.00653076,-0.562805,0.825928
1481271462803792,-0.0341187,0.00604248,-0.563904,0.825073
1481271462827315,-0.0316162,0.00726318,-0.56543,0.824158
1481271462848854,-0.0300293,0.00939941,-0.566406,0.823547
1481271462863888,-0.0298462,0.00878906,-0.567322,0.822876
1481271462886849,-0.0299072,0.00683594,-0.568237,0.822266
1481271462908901,-0.0307007,0.00640869,-0.569092,0.821655
1481271462922855,-0.0310059,0.00750732,-0.569641,0.821289
1481271462946913,-0.0302734,0.0100098,-0.569519,0.82135
1481271462968907,-0.0302124,0.0115967,-0.569763,0.821167
1481271462982912,-0.0320435,0.00646973,-0.570007,0.820984
1481271463006913,-0.0315552,0.00689697,-0.570374,0.82074
1481271463029584,-0.0297241,0.00946045,-0.571167,0.820251
1481271463050246,-0.0297852,0.00109863,-0.572449,0.819397
1481271463067236,-0.0266113,0.00616455,-0.575012,0.817688
1481271463089169,-0.0296631,0.000976563,-0.578674,0.815002
1481271463110172,-0.0302124,0.00817871,-0.58197,0.812561
1481271463126885,-0.0305176,0.00585938,-0.585022,0.810425
1481271463148990,-0.0299683,-0.000976563,-0.5896,0.807129
1481271463170003,-0.0250244,0.00457764,-0.594788,0.803467
1481271463186929,-0.0273438,0.00427246,-0.600525,0.799133
1481271463208923,-0.0314331,6.10352e-005,-0.60791,0.793396
1481271463230442,-0.0335083,-0.00183105,-0.616699,0.786438
1481271463246448,-0.0327148,-0.000366211,-0.626709,0.778564
1481271463269449,-0.0278931,0.00250244,-0.637451,0.77002
1481271463290455,-0.0177002,0.00390625,-0.64917,0.760437
1481271463306452,-0.00646973,0.00543213,-0.66217,0.749329
1481271463329468,-0.00457764,0.00366211,-0.677063,0.735901
1481271463350003,-0.00836182,0.00201416,-0.692566,0.721313
1481271463359069,-0.0140991,-0.00170898,-0.706482,0.707581
1481271463382083,-0.0106812,-0.00231934,-0.720886,0.692993
1481271463396010,-0.0022583,-0.00543213,-0.735962,0.676941
1481271463418105,0.00280762,-0.00378418,-0.752869,0.658203
1481271463442089,-0.00134277,0.00354004,-0.768921,0.639343
1481271463464296,-0.00762939,0.00732422,-0.78479,0.619629
1481271463478356,-0.00671387,0.000549316,-0.801025,0.598633
1481271463501336,0.00152588,-0.00933838,-0.817383,0.57605
1481271463524315,0.00708008,-0.00933838,-0.833496,0.552429
1481271463547357,0.00921631,-0.00378418,-0.849121,0.528137
1481271463593360,0.00640869,0.00146484,-0.862366,0.506287
1481271463599398,0.00537109,0.00396729,-0.87384,0.486206
1481271463601360,0.00494385,0.000671387,-0.884766,0.466003
1481271463621398,0.00585938,-0.00500488,-0.895874,0.444275
1481271463651707,0.00299072,-0.0057373,-0.906067,0.423157
1481271463658754,-0.0012207,-0.00238037,-0.914795,0.403931
1481271463690746,-0.00195313,0.000610352,-0.923035,0.384766
1481271463702791,0.00311279,-0.00115967,-0.931091,0.364746
1481271463735809,0.00946045,-0.00683594,-0.939392,0.342651
1481271463742311,0.00720215,-0.00262451,-0.94696,0.32135
1481271463762988,0.000732422,0.0098877,-0.954163,0.299194
1481271463793991,-0.000610352,0.0201416,-0.959778,0.280151
1481271463802019,0.00238037,0.022644,-0.963928,0.265198
1481271463822992,0.00952148,0.0184937,-0.968323,0.248962
1481271463846578,0.0110474,0.017334,-0.972412,0.232544
1481271463869650,0.00390625,0.022583,-0.97583,0.217346
1481271463874583,-0.00494385,0.0288086,-0.978394,0.204834
1481271463905582,-0.00628662,0.0303345,-0.980896,0.192078
1481271463912659,-0.00280762,0.0281982,-0.983154,0.180847
1481271463934676,-0.0010376,0.0264893,-0.984741,0.17218
1481271463974112,-0.0045166,0.0263062,-0.985535,0.167358
1481271463976084,-0.0065918,0.0249634,-0.986084,0.164551
1481271463994112,-0.00854492,0.0218506,-0.986267,0.163757
1481271464018221,-0.00970459,0.0201416,-0.986145,0.164368
1481271464042628,-0.0114136,0.019104,-0.985962,0.165527
1481271464079752,-0.0135498,0.0171509,-0.985779,0.166931
1481271464081752,-0.0166016,0.0159912,-0.985291,0.169617
1481271464100833,-0.019165,0.0155029,-0.984741,0.172546
1481271464122754,-0.0157471,0.0205078,-0.984985,0.171021
1481271464148894,-0.0101929,0.026062,-0.985168,0.169373
1481271464152980,-0.00946045,0.027832,-0.985046,0.169922
1481271464183996,-0.0136719,0.0310669,-0.984558,0.171814
1481271464205898,-0.0179443,0.0342407,-0.984436,0.17157
1481271464211898,-0.0203857,0.034668,-0.984375,0.171387
1481271464244453,-0.0227051,0.031311,-0.984253,0.172546
1481271464258419,-0.0236206,0.0291138,-0.984009,0.174133
1481271464275455,-0.0234985,0.0281372,-0.984009,0.174438
1481271464294446,-0.0235596,0.0288086,-0.983887,0.174866
1481271464317429,-0.0248413,0.0322876,-0.983704,0.17511
1481271464348116,-0.0261841,0.0338135,-0.983521,0.175842
1481271464357104,-0.0257568,0.0317383,-0.983521,0.17627
1481271464378102,-0.0253906,0.0326538,-0.983459,0.176392
1481271464392042,-0.0259399,0.0337524,-0.983459,0.176147
1481271464417105,-0.0270996,0.031311,-0.983459,0.176331
1481271464445569,-0.0282593,0.0301514,-0.983459,0.176453
1481271464460609,-0.0280762,0.0316772,-0.983459,0.176331
1481271464484637,-0.0270386,0.0314331,-0.983582,0.175842
1481271464497638,-0.0245972,0.027832,-0.983704,0.175903
1481271464530218,-0.0238647,0.0264893,-0.983826,0.17572
1481271464534679,-0.0244141,0.0269775,-0.984192,0.173462
1481271464557769,-0.0256958,0.0285034,-0.984436,0.171692
1481271464572688,-0.0262451,0.0304565,-0.984436,0.171143
1481271464594768,-0.0266113,0.0307007,-0.984253,0.172302
1481271464634316,-0.0299072,0.0344849,-0.985168,0.165527
1481271464636787,-0.0284424,0.0345459,-0.986267,0.15918
1481271464657430,-0.0263672,0.0331421,-0.986938,0.155396
1481271464700466,-0.0263062,0.0355225,-0.987366,0.152222
1481271464709538,-0.0263672,0.0358887,-0.988403,0.145325
1481271464723443,-0.0241089,0.0299683,-0.989746,0.137695
1481271464739520,-0.0205688,0.0235596,-0.990906,0.131165
1481271464761593,-0.0186768,0.0202637,-0.99176,0.125183
1481271464806665,-0.0184937,0.0157471,-0.993103,0.114868
1481271464809593,-0.017395,0.0158081,-0.994507,0.10199
1481271464847180,-0.0164185,0.0175171,-0.995605,0.0908203
1481271464868115,-0.0128174,0.0144043,-0.996765,0.078125
1481271464870150,-0.0103149,0.0102539,-0.997864,0.0644531
1481271464875116,-0.0067749,0.00836182,-0.998779,0.0487061
1481271464912136,-0.000610352,0.0107422,-0.999512,0.0310059
1481271464942700,0.00378418,0.00939941,-0.999878,0.0149536
1481271464943637,0.00732422,0.00262451,-1,-0.00311279
1481271464981023,0.00805664,-0.00396729,-0.999695,-0.0241699
1481271464987024,0.0090332,-0.00561523,-0.999084,-0.0425415
1481271465000105,0.0106201,-0.0032959,-0.99823,-0.0585938
1481271465014028,0.0169678,-0.00183105,-0.997253,-0.072937
1481271465039118,0.0202026,-0.00305176,-0.99585,-0.0888672
1481271465076763,0.0220947,0.000915527,-0.993347,-0.113403
1481271465078721,0.0209961,0.00946045,-0.989868,-0.140137
1481271465105658,0.0194702,0.0155029,-0.987,-0.15918
1481271465120734,0.0167847,0.019104,-0.984314,-0.174866
1481271465143212,0.0127563,0.0140991,-0.980713,-0.194702
1481271465157105,0.00537109,0.010437,-0.976196,-0.216614
1481271465180094,0.00378418,0.0106812,-0.970642,-0.240479
1481271465194096,0.00671387,0.0146484,-0.965271,-0.260986
1481271465217097,0.0117798,0.0181885,-0.959595,-0.280579
1481271465248119,0.0136108,0.0239868,-0.953979,-0.298706
1481271465254121,0.0119019,0.0252075,-0.947754,-0.317932
1481271465278177,0.0119629,0.0234985,-0.941101,-0.337219
1481271465300122,0.0143433,0.0228882,-0.934692,-0.354492
1481271465316122,0.0134277,0.0132446,-0.927551,-0.373352
1481271465338632,0.010376,0.0117798,-0.921326,-0.388611
1481271465360146,0.00976563,0.00994873,-0.913452,-0.40686
1481271465383207,0.00891113,0.00634766,-0.905518,-0.424316
1481271465397145,0.00482178,0.00616455,-0.896973,-0.442078
1481271465421200,0.00268555,0.00549316,-0.888489,-0.458984
1481271465434660,0.0012207,0.000549316,-0.880066,-0.474915
1481271465460167,0.000366211,-0.00146484,-0.871887,-0.489746
1481271465487172,0.00561523,-0.00164795,-0.863464,-0.504517
1481271465497233,0.012207,0.00134277,-0.855164,-0.518311
1481271465527172,0.0147095,0.003479,-0.84668,-0.531921
1481271465540194,0.0167236,0.0045166,-0.83905,-0.543823
1481271465556207,0.0168457,0.00494385,-0.831421,-0.55542
1481271465577206,0.0166016,0.00604248,-0.82428,-0.565979
1481271465600270,0.0166626,0.00402832,-0.816223,-0.577576
1481271465614208,0.0192871,0.00366211,-0.807678,-0.589355
1481271465637313,0.0181274,0.00201416,-0.798889,-0.601257
1481271465660391,0.0152588,-0.0010376,-0.7901,-0.612854
1481271465674339,0.0122681,-0.00439453,-0.781982,-0.623291
1481271465697324,0.00878906,-0.00909424,-0.77417,-0.632935
1481271465720328,0.00683594,-0.0129395,-0.766235,-0.642456
1481271465734844,0.00610352,-0.0144653,-0.758728,-0.651306
1481271465757410,0.00518799,-0.0167236,-0.752319,-0.65863
1481271465788349,0.00219727,-0.0197144,-0.747498,-0.664063
1481271465794419,0.000793457,-0.0213013,-0.743469,-0.668457
1481271465817358,0.00140381,-0.0222778,-0.740479,-0.671753
1481271465840365,0.00231934,-0.0223389,-0.738037,-0.674438
1481271465854378,0.00292969,-0.0212402,-0.737244,-0.675354
1481271465877381,-0.00115967,-0.0217896,-0.737244,-0.675354
1481271465900384,-0.00384521,-0.0206299,-0.737976,-0.674622
1481271465914490,-0.00244141,-0.0179443,-0.739197,-0.67334
1481271465937434,-0.00177002,-0.017334,-0.740967,-0.671387
1481271465959997,-0.00238037,-0.0194702,-0.742798,-0.669312
1481271465975062,-0.00152588,-0.0209351,-0.744507,-0.667358
1481271465997000,-0.00012207,-0.0206299,-0.745728,-0.665955
1481271466020004,0.00128174,-0.0195923,-0.74646,-0.665222
1481271466035078,0.00482178,-0.0160522,-0.746948,-0.664734
1481271466056602,0.00878906,-0.0129395,-0.74707,-0.664673
1481271466080528,0.0127563,-0.00976563,-0.747253,-0.664429
1481271466094539,0.0166626,-0.00653076,-0.747803,-0.663696
1481271466116642,0.0198975,-0.00341797,-0.748657,-0.66272
1481271466148288,0.020874,-0.00256348,-0.749573,-0.661621
1481271466154213,0.020874,-0.00274658,-0.75116,-0.65979
1481271466177289,0.0193481,-0.00360107,-0.752686,-0.658142
1481271466199530,0.0187378,-0.00457764,-0.753479,-0.657227
1481271466214463,0.0187378,-0.00445557,-0.753235,-0.657532
1481271466237540,0.0184326,-0.00469971,-0.752502,-0.658386
1481271466259510,0.0165405,-0.00500488,-0.752075,-0.658936
1481271466274483,0.0145264,-0.00445557,-0.751526,-0.659607
1481271466297552,0.013916,-0.00280762,-0.751465,-0.659729
1481271466328556,0.0133057,-0.00250244,-0.752075,-0.658997
1481271466334570,0.0119629,-0.00408936,-0.753235,-0.657654
1481271466357201,0.0110474,-0.0057373,-0.754395,-0.656372
1481271466379122,0.0108032,-0.00610352,-0.755859,-0.654663
1481271466394123,0.0100708,-0.0065918,-0.758057,-0.6521
1481271466425125,0.00817871,-0.00799561,-0.760925,-0.648804
1481271466448315,0.0067749,-0.00982666,-0.764282,-0.644836
1481271466454282,0.00604248,-0.0126343,-0.767151,-0.641357
1481271466477409,0.00946045,-0.012207,-0.77063,-0.637146
1481271466499415,0.0123291,-0.0130615,-0.775452,-0.631226
1481271466514315,0.010376,-0.0152588,-0.782349,-0.62262
1481271466537334,0.00646973,-0.0184326,-0.788391,-0.614929
1481271466559778,0.0100708,-0.0164185,-0.794312,-0.6073
1481271466574760,0.017334,-0.0115967,-0.800537,-0.598999
1481271466596767,0.020752,-0.0106201,-0.806152,-0.591309
1481271466619772,0.0201416,-0.0133057,-0.811829,-0.583496
1481271466634780,0.0215454,-0.0149536,-0.817505,-0.575378
1481271466656789,0.0238037,-0.0123291,-0.823486,-0.566772
1481271466679790,0.0246582,-0.0134888,-0.830322,-0.556641
1481271466694795,0.0257568,-0.015564,-0.839355,-0.542786
1481271466716884,0.0282593,-0.0137329,-0.849182,-0.527222
1481271466739805,0.0275879,-0.0137329,-0.859192,-0.510864
1481271466754397,0.0256958,-0.019104,-0.869019,-0.493835
1481271466777398,0.0261841,-0.0234375,-0.878357,-0.476807
1481271466799478,0.0297852,-0.0219116,-0.888,-0.458496
1481271466814402,0.0310059,-0.0177612,-0.900146,-0.434143
1481271466837481,0.0192261,-0.0285645,-0.914001,-0.404297
1481271466859560,0.00567627,-0.0473633,-0.924683,-0.377808
1481271466882520,0.00305176,-0.0588379,-0.933472,-0.353821
1481271466897523,0.010437,-0.0593262,-0.94104,-0.333069
1481271466919463,0.0170288,-0.0603027,-0.948364,-0.311096
1481271466942970,0.0200195,-0.0646973,-0.956116,-0.285217
1481271466957069,0.0228271,-0.0734253,-0.962769,-0.259216
1481271466979055,0.0263062,-0.0808105,-0.967285,-0.239136
1481271467002984,0.0350952,-0.0854492,-0.971008,-0.220642
1481271467017057,0.0441895,-0.0890503,-0.974731,-0.200134
1481271467040080,0.0476685,-0.0932617,-0.977783,-0.181702
1481271467063178,0.0460815,-0.0987549,-0.979919,-0.167114
1481271467077155,0.0466309,-0.109192,-0.981445,-0.150818
1481271467099158,0.045105,-0.118164,-0.983398,-0.130615
1481271467122082,0.0395508,-0.120239,-0.98584,-0.110107
1481271467137089,0.0355835,-0.118225,-0.98822,-0.0910645
1481271467160116,0.0338745,-0.114319,-0.990173,-0.0737915
1481271467181987,0.0317383,-0.109131,-0.992004,-0.0557251
1481271467197054,0.0266113,-0.102112,-0.993896,-0.0328979
1481271467220051,0.0211182,-0.0935669,-0.995361,-0.0108643
1481271467244061,0.0155029,-0.0835571,-0.996338,0.0106812
1481271467256879,0.0117798,-0.0715332,-0.996948,0.0302124
1481271467280884,0.00897217,-0.0603027,-0.997009,0.0479736
1481271467301976,0.00561523,-0.0474854,-0.996704,0.0664063
1481271467316918,0.000854492,-0.0298462,-0.995605,0.0891724
1481271467339911,-0.00787354,-0.0146484,-0.993591,0.111938
1481271467361921,-0.013855,-0.012207,-0.991699,0.127258
1481271467377016,-0.0106201,-0.0178833,-0.99054,0.135803
1481271467400051,-0.00488281,-0.0209351,-0.990173,0.138184
1481271467421922,-0.00170898,-0.0162964,-0.990417,0.137207
1481271467437545,-0.00683594,-0.0118408,-0.990295,0.138672
1481271467459660,-0.0106201,-0.0135498,-0.990356,0.137756
1481271467481715,-0.0110474,-0.0141602,-0.990601,0.13562
1481271467496717,-0.00622559,-0.0101318,-0.991089,0.132751
1481271467519642,-0.00195313,-0.00366211,-0.991577,0.1297
1481271467542166,0.0010376,-0.00183105,-0.991821,0.127991
1481271467575179,0.00140381,-0.0057373,-0.991821,0.127747
1481271467579174,-0.00140381,-0.0101929,-0.991821,0.127625
1481271467603208,-0.00280762,-0.0163574,-0.991638,0.128357
1481271467617203,-0.00286865,-0.0217285,-0.991577,0.127625
1481271467641711,-0.00140381,-0.0214844,-0.991882,0.125549
1481271467680755,-0.00146484,-0.0223999,-0.992004,0.124207
1481271467684751,-0.00286865,-0.0263062,-0.99176,0.125305
1481271467707752,-0.0067749,-0.0290527,-0.991516,0.126587
1481271467721756,-0.00805664,-0.0293579,-0.991638,0.125671
1481271467744766,-0.00732422,-0.0280151,-0.991882,0.12384
1481271467759869,-0.00708008,-0.0272827,-0.992126,0.122375
1481271467781964,-0.00708008,-0.0299072,-0.992065,0.122375
1481271467796870,-0.00823975,-0.0335693,-0.99176,0.123596
1481271467819880,-0.00811768,-0.0338135,-0.991821,0.12323
1481271467852391,-0.00738525,-0.03125,-0.992004,0.122375
1481271467857394,-0.00836182,-0.0293579,-0.992126,0.121948
1481271467881462,-0.010498,-0.0288696,-0.992065,0.122375
1481271467902397,-0.0125732,-0.0327148,-0.992004,0.121216
1481271467920430,-0.012207,-0.0378418,-0.992065,0.119507
1481271467948229,-0.0101318,-0.0429077,-0.991943,0.118896
1481271467962242,-0.00775146,-0.0529175,-0.992188,0.11322
1481271467986230,-0.00292969,-0.060791,-0.99231,0.108215
1481271467999193,0.00384521,-0.0644531,-0.992249,0.106506
1481271468025165,0.00817871,-0.0617676,-0.992432,0.105896
1481271468038708,0.00964355,-0.0600586,-0.993347,0.0982666
1481271468062312,0.00878906,-0.0532227,-0.994202,0.0930176
1481271468090315,0.0088501,-0.0490112,-0.994507,0.0922852
1481271468098287,0.00848389,-0.0460815,-0.994629,0.0923462
1481271468137326,0.00891113,-0.0432129,-0.994812,0.0916748
1481271468142330,0.00964355,-0.0354004,-0.995422,0.0883179
1481271468167841,0.00921631,-0.0256348,-0.996033,0.0852051
1481271468198840,0.00915527,-0.020813,-0.996216,0.0840454
1481271468203841,0.00939941,-0.0238037,-0.996094,0.0848999
1481271468235855,0.00836182,-0.0303345,-0.995911,0.0849609
1481271468239854,0.00561523,-0.0372314,-0.995911,0.0823975
1481271468271866,0.00384521,-0.0450439,-0.995972,0.078125
1481271468310871,0.00384521,-0.0493164,-0.99585,0.0764771
1481271468315937,0.00360107,-0.0518799,-0.995911,0.0744629
1481271468339382,0.00494385,-0.0518188,-0.99585,0.0749512
1481271468341378,0.00634766,-0.0490723,-0.99585,0.076355
1481271468370890,0.00695801,-0.0446777,-0.995911,0.0783691
1481271468405956,0.00604248,-0.0421753,-0.995972,0.0790405
1481271468415941,0.00579834,-0.0394287,-0.996155,0.078186
1481271468452986,0.00799561,-0.0374146,-0.996277,0.0773926
1481271468458983,0.00976563,-0.0383301,-0.996338,0.0762939
1481271468460984,0.0102539,-0.0426025,-0.996155,0.0759277
1481271468480020,0.0111084,-0.0452881,-0.995972,0.0771484
1481271468511986,0.0111084,-0.0459595,-0.995911,0.0776978
1481271468518989,0.010437,-0.046875,-0.99585,0.0778809
1481271468543589,0.0106812,-0.0463867,-0.99585,0.0782471
1481271468562082,0.0113525,-0.0438843,-0.995972,0.0776978
1481271468580082,0.0115356,-0.0411377,-0.996216,0.0762329
1481271468616105,0.0116577,-0.0413208,-0.996277,0.0755005
1481271468622083,0.0119629,-0.0426025,-0.996094,0.0765381
1481271468647165,0.0119629,-0.0432129,-0.995972,0.0776367
1481271468660124,0.0118408,-0.0453491,-0.995911,0.0777588
1481271468685104,0.0116577,-0.0457153,-0.995911,0.0774536
1481271468722157,0.012146,-0.0441284,-0.996033,0.0766602
1481271468724106,0.0127563,-0.0408325,-0.996216,0.0761719
1481271468750194,0.012207,-0.0374756,-0.996399,0.0755615
1481271468764136,0.0116577,-0.0350952,-0.996521,0.0749512
1481271468791130,0.0112915,-0.0361938,-0.996521,0.0742798
1481271468802135,0.0112915,-0.0394287,-0.996582,0.0721436
1481271468827200,0.010437,-0.0427856,-0.996643,0.0692749
1481271468857158,0.0107422,-0.0459595,-0.996521,0.0691528
1481271468862154,0.0100098,-0.0484009,-0.996338,0.0701904
1481271468894158,0.00848389,-0.046875,-0.99646,0.0697632
1481271468901163,0.00726318,-0.0427246,-0.996704,0.0688477
1481271468925159,0.00848389,-0.039856,-0.996826,0.0686646
1481271468963752,0.0090332,-0.0383301,-0.996887,0.0686035
1481271468968795,0.00854492,-0.038269,-0.996948,0.0681763
1481271468999755,0.00854492,-0.0396118,-0.996826,0.0690308
1481271469005789,0.00964355,-0.0425415,-0.996521,0.0710449
1481271469028761,0.0101929,-0.0435181,-0.99646,0.0717773
1481271469042317,0.00909424,-0.0426025,-0.996643,0.0698853
1481271469067944,0.00897217,-0.0412598,-0.996826,0.0682373
1481271469081880,0.00994873,-0.0405273,-0.996826,0.0682373
1481271469104881,0.0101929,-0.0407104,-0.996765,0.0689087
1481271469134478,0.0100098,-0.041687,-0.996643,0.0698242
1481271469141510,0.0101318,-0.0418701,-0.996582,0.0710449
1481271469173017,0.010376,-0.0403442,-0.996643,0.0707397
1481271469202092,0.00927734,-0.0405273,-0.996765,0.0689087
1481271469204018,0.00952148,-0.0409546,-0.996765,0.0691528
1481271469241532,0.0103149,-0.0405273,-0.996704,0.0700684
1481271469246555,0.010376,-0.0401001,-0.996704,0.0698853
1481271469276553,0.00946045,-0.0404663,-0.996704,0.0697632
1481271469283550,0.0090332,-0.0404053,-0.996765,0.0697021
1481271469305616,0.0090332,-0.039917,-0.996765,0.069458
1481271469321587,0.00891113,-0.0387573,-0.996826,0.0697632
1481271469345065,0.0090332,-0.0392456,-0.996765,0.0702515
1481271469381675,0.0090332,-0.0402222,-0.996704,0.0703735
1481271469383636,0.0088501,-0.041748,-0.996704,0.0697632
1481271469413620,0.00897217,-0.0429688,-0.996704,0.0690918
1481271469424585,0.0088501,-0.0429077,-0.996704,0.0686035
1481271469450126,0.00909424,-0.041626,-0.996765,0.0686646
1481271469478125,0.00915527,-0.0410767,-0.996765,0.0692749
1481271469485163,0.00946045,-0.0404663,-0.996765,0.069519
1481271469519125,0.00952148,-0.0392456,-0.996826,0.0692749
1481271469523189,0.00976563,-0.0380859,-0.996887,0.0686035
1481271469554164,0.00933838,-0.0388794,-0.996948,0.067749
