timestamp,x,y,z
1481268171545838,0.978027,-0.0141602,-0.0249023
1481268171569842,0.977539,-0.00878906,-0.0405273
1481268171584846,0.980469,-0.0170898,-0.00244141
1481268171605846,0.978027,-0.0185547,-0.00683594
1481268171621348,0.981445,-0.015625,0.0239258
1481268171644350,0.981934,-0.0288086,-0.0112305
1481268171665855,0.975586,-0.0136719,-0.0351563
1481268171681356,0.980957,-0.0185547,-0.0351563
1481268171704859,0.981934,-0.0205078,-0.0102539
1481268171725862,0.983398,-0.027832,-0.0131836
1481268171741363,0.981445,-0.0200195,-0.00390625
1481268171764867,0.983887,-0.0268555,-0.0161133
1481268171785453,0.981445,-0.0253906,-0.0102539
1481268171801378,0.981934,-0.0151367,-0.00195313
1481268171823958,0.976563,-0.0102539,-0.0234375
1481268171846896,0.979492,-0.0146484,-0.0175781
1481268171868955,0.97998,-0.0205078,0.000976563
1481268171883896,0.977051,-0.0151367,-0.0161133
1481268171906404,0.979004,-0.0219727,-0.0219727
1481268171921430,0.980957,-0.0258789,0.0078125
1481268171943433,0.975098,-0.0117188,0.00830078
1481268171966489,0.976563,-0.0141602,0.00439453
1481268171981435,0.981934,-0.0214844,-0.0297852
1481268172003434,0.977051,-0.0146484,0.0170898
1481268172026544,0.984863,-0.0244141,-0.00585938
1481268172041481,0.981445,-0.0151367,0.0117188
1481268172063481,0.978027,-0.0141602,0.0185547
1481268172086516,0.976563,-0.0151367,-0.0224609
1481268172101483,0.982422,-0.027832,0.015625
1481268172131577,0.981445,-0.0229492,0.00976563
1481268172146644,0.977539,-0.0141602,0.00244141
1481268172161644,0.986328,-0.0322266,0.00634766
1481268172183582,0.981934,-0.0219727,0.0249023
1481268172207094,0.978027,-0.0166016,0.00341797
1481268172221103,0.984863,-0.0341797,0.000488281
1481268172244171,0.981445,-0.0161133,0.0146484
1481268172267106,0.981445,-0.0175781,0.0117188
1481268172281111,0.978027,-0.0136719,0.012207
1481268172303110,0.976074,-0.0214844,-0.00634766
1481268172327164,0.976074,-0.0185547,-0.00683594
1481268172341161,0.978027,-0.015625,0.0141602
1481268172364228,0.97998,-0.0195313,0.0146484
1481268172416678,0.980957,-0.0146484,-0.000488281
1481268172434188,0.981445,-0.0180664,0.000976563
1481268172439193,0.980469,-0.0151367,0.00146484
1481268172450189,0.979492,-0.0151367,0.00537109
1481268172468190,0.978516,-0.0175781,-0.0107422
1481268172483293,0.982422,-0.0180664,0.00244141
1481268172507202,0.981934,-0.0249023,0.00439453
1481268172527858,0.97998,-0.0249023,-0.00927734
1481268172543795,0.980957,-0.0263672,-0.00927734
1481268172566800,0.977539,-0.0224609,0.00341797
1481268172587798,0.975586,-0.0102539,-0.0478516
1481268172610803,0.974609,0.00341797,0.027832
1481268172626854,0.981934,-0.0292969,0.00634766
1481268172656854,0.982422,-0.0214844,-0.00585938
1481268172672856,0.980957,-0.0273438,0.00390625
1481268172694906,0.977051,-0.0205078,0.0263672
1481268172708409,0.981934,-0.0244141,-0.00341797
1481268172723386,0.976563,-0.0219727,-0.00488281
1481268172746380,0.976074,-0.0209961,-0.0131836
1481268172768438,0.980469,-0.015625,-0.00195313
1481268172783378,0.972656,-0.00927734,0.00488281
1481268172806391,0.98291,-0.0170898,-0.0126953
1481268172828467,0.981445,-0.0166016,-0.00341797
1481268172843401,0.98291,-0.0288086,0
1481268172866401,0.976563,-0.000488281,-0.00488281
1481268172896404,0.983887,-0.034668,0.00195313
1481268172903409,0.979004,-0.0239258,-0.0273438
1481268172926418,0.981445,-0.0146484,-0.0078125
1481268172949453,0.977051,-0.00634766,0.00878906
1481268172979421,0.980469,-0.0185547,0.00976563
1481268172986421,0.98291,-0.0170898,-0.00439453
1481268173009941,0.978516,-0.0200195,-0.0078125
1481268173023932,0.98291,-0.0170898,-0.00683594
1481268173052936,0.97998,-0.0234375,0.00146484
1481268173069438,0.979492,-0.019043,-0.00732422
1481268173083940,0.981934,-0.0327148,-0.00732422
1481268173106442,0.980957,-0.0146484,-0.0268555
1481268173129446,0.980957,-0.0234375,-0.0117188
1481268173150988,0.980957,-0.0224609,-0.0107422
1481268173168950,0.981445,-0.0371094,-0.0200195
1481268173189453,0.978027,-0.0180664,-0.0200195
1481268173211956,0.979492,-0.0161133,-0.0229492
1481268173226458,0.977539,-0.0224609,-0.0307617
1481268173249462,0.979492,-0.019043,-0.0146484
1481268173263963,0.984375,-0.0209961,0.00439453
1481268173286466,0.983398,-0.0253906,-0.0249023
1481268173309468,0.979004,-0.0185547,-0.027832
1481268173323970,0.98291,-0.0239258,-0.0205078
1481268173346473,0.976563,-0.0234375,-0.0161133
1481268173369476,0.983887,-0.0224609,-0.015625
1481268173390478,0.977051,-0.00537109,-0.0249023
1481268173406481,0.978027,-0.0234375,-0.0273438
1481268173429484,0.978516,-0.0380859,-0.0283203
1481268173450486,0.977539,-0.0209961,-0.0546875
1481268173466489,0.975098,-0.0166016,-0.0361328
1481268173489491,0.97998,-0.0283203,-0.0244141
1481268173511994,0.979492,-0.0151367,-0.0292969
1481268173526996,0.980469,-0.0288086,-0.0219727
1481268173549499,0.978516,-0.0136719,-0.0185547
1481268173570501,0.978027,-0.0214844,-0.0258789
1481268173586512,0.980957,-0.00927734,-0.0214844
1481268173609513,0.980469,-0.0214844,-0.00585938
1481268173630523,0.983887,-0.0234375,0.00976563
1481268173646515,0.981445,-0.0209961,-0.0200195
1481268173669529,0.981934,-0.0214844,-0.00537109
1481268173690553,0.979004,-0.0234375,0.00537109
1481268173706555,0.977051,-0.0229492,-0.0234375
1481268173728559,0.983887,-0.0253906,-0.0146484
1481268173750641,0.980469,-0.0249023,-0.0107422
1481268173767565,0.978516,-0.019043,-0.012207
1481268173788577,0.979492,-0.0253906,-0.0107422
1481268173813577,0.984375,-0.0219727,-0.0205078
1481268173825648,0.980957,-0.0297852,-0.0078125
1481268173848580,0.980469,-0.0214844,-0.00878906
1481268173872114,0.974121,-0.015625,-0.0112305
1481268173886608,0.981934,-0.0258789,-0.0146484
1481268173908577,0.979492,-0.0244141,-0.0200195
1481268173931577,0.982422,-0.0244141,-0.027832
1481268173945579,0.980469,-0.012207,-0.0180664
1481268173968586,0.980469,-0.0205078,-0.0112305
1481268173991298,0.97998,-0.0229492,0.000488281
1481268174006236,0.981934,-0.0317383,0.00341797
1481268174029239,0.981445,-0.0302734,-0.00488281
1481268174052236,0.980469,-0.0229492,-0.00976563
1481268174074798,0.97998,-0.0170898,-0.0117188
1481268174088624,0.979004,-0.015625,-0.00634766
1481268174112624,0.979004,-0.0244141,-0.00244141
1481268174125631,0.978027,-0.0166016,0.0131836
1481268174148625,0.982422,-0.019043,0.0175781
1481268174172141,0.978027,-0.0239258,0.0131836
1481268174186299,0.98291,-0.0253906,-0.00439453
1481268174208365,0.97998,-0.0229492,0.00146484
1481268174232338,0.981445,-0.0239258,0.0170898
1481268174246304,0.98291,-0.0214844,0.00146484
1481268174269319,0.980469,-0.0239258,0.00878906
1481268174291804,0.978516,-0.0214844,0.00439453
1481268174305874,0.979004,-0.019043,0.0112305
1481268174335807,0.981445,-0.0219727,0.00976563
1481268174342820,0.981934,-0.0244141,-0.000488281
1481268174364812,0.981934,-0.0283203,-0.000488281
1481268174387884,0.980469,-0.0253906,-0.00976563
1481268174401885,0.978516,-0.0180664,0
1481268174440966,0.97998,-0.0327148,0.0078125
1481268174447886,0.976563,-0.0166016,-0.00732422
1481268174461929,0.978516,-0.0219727,0.00195313
1481268174484917,0.980957,-0.0541992,0
1481268174507916,0.982422,-0.0146484,-0.00292969
1481268174523922,0.974609,-0.0166016,0.0078125
1481268174544998,0.974121,-0.0185547,0.0273438
1481268174568437,0.980469,-0.0454102,-0.0170898
1481268174583946,0.979004,-0.0361328,-0.000488281
1481268174604966,0.980469,-0.0234375,-0.00830078
1481268174635948,0.980957,-0.0356445,0.00146484
1481268174643948,0.97998,-0.0131836,-0.0102539
1481268174664954,0.978516,-0.0214844,-0.000976563
1481268174687583,0.980469,-0.00927734,0.00390625
1481268174710680,0.982422,-0.00976563,-0.00341797
1481268174724664,0.981934,-0.0258789,-0.00878906
1481268174747588,0.978516,-0.0170898,-0.0161133
1481268174762591,0.980469,-0.0297852,0.0126953
1481268174784868,0.981445,-0.0361328,0.0297852
1481268174807845,0.981934,-0.0244141,0.0234375
1481268174823842,0.979004,-0.00585938,-0.0117188
1481268174844843,0.978027,-0.0102539,-0.0205078
1481268174868418,0.974121,-0.00195313,-0.00585938
1481268174882216,0.979492,-0.0209961,0.00292969
1481268174905249,0.972656,-0.0131836,-0.0205078
1481268174928305,0.984375,-0.0576172,-0.0488281
1481268174942297,0.976563,-0.0166016,0.00244141
1481268174964222,0.981934,-0.0439453,-0.0302734
1481268174988267,0.980469,-0.0244141,0.00830078
1481268175002345,0.978516,-0.0463867,-0.0166016
1481268175025302,0.973633,-0.0224609,-0.0375977
1481268175048268,0.978516,-0.0336914,-0.0366211
1481268175062276,0.979492,-0.0175781,-0.00732422
1481268175085080,0.981445,-0.0375977,-0.0219727
1481268175108173,0.97998,-0.0214844,-0.0322266
1481268175130085,0.98584,-0.0351563,-0.0209961
1481268175145083,0.979004,-0.0317383,-0.0126953
1481268175168095,0.977539,-0.0229492,-0.00390625
1481268175182271,0.981934,-0.0307617,-0.0117188
1481268175205244,0.980957,-0.0351563,-0.0351563
1481268175228259,0.981445,-0.027832,-0.0307617
1481268175242195,0.97998,-0.0258789,-0.00537109
1481268175265257,0.981445,-0.0209961,-0.0302734
1481268175287778,0.981934,-0.0297852,-0.0107422
1481268175302778,0.976074,-0.0283203,-0.0288086
1481268175324849,0.980957,-0.0209961,-0.00683594
1481268175347781,0.98291,-0.0268555,-0.012207
1481268175362764,0.980957,-0.015625,-0.0214844
1481268175384802,0.977051,-0.0253906,0.0458984
1481268175407890,0.981445,-0.0375977,-0.0200195
1481268175422804,0.980469,-0.0356445,0
1481268175453807,0.976563,-0.0209961,-0.00195313
1481268175467825,0.982422,-0.0288086,0.0146484
1481268175481839,0.981445,-0.0170898,-0.00195313
1481268175513834,0.97998,-0.0249023,-0.012207
1481268175527838,0.97998,-0.0253906,-0.0561523
1481268175550837,0.98291,-0.0292969,-0.0117188
1481268175564836,0.973633,-0.0258789,-0.0839844
1481268175587525,0.981445,-0.0209961,-0.0292969
1481268175610620,0.981934,-0.0307617,-0.0327148
1481268175624584,0.983887,-0.0175781,0.00927734
1481268175647511,0.977539,-0.00878906,-0.0283203
1481268175670520,0.978516,-0.0126953,-0.0458984
1481268175685111,0.972168,-0.0170898,-0.0639648
1481268175707106,0.983398,-0.0180664,-0.0317383
1481268175722137,0.978027,-0.0195313,-0.0454102
1481268175746063,0.984863,-0.0253906,0.0200195
1481268175767553,0.977539,-0.0195313,-0.0424805
1481268175791063,0.981934,-0.0219727,-0.0107422
1481268175805072,0.980469,-0.0336914,-0.0292969
1481268175827065,0.98291,-0.0229492,-0.0166016
1481268175850066,0.977539,-0.0161133,-0.00830078
1481268175865065,0.98291,-0.0195313,-0.0175781
1481268175889090,0.978516,-0.0126953,-0.0078125
1481268175910168,0.978516,-0.0166016,-0.0161133
1481268175925168,0.980469,-0.0356445,-0.0561523
1481268175947089,0.981934,-0.0297852,-0.0307617
1481268175970773,0.978516,-0.019043,-0.0400391
1481268175984230,0.979004,-0.0302734,-0.0595703
1481268176007327,0.979492,-0.0200195,-0.0146484
1481268176030230,0.98291,-0.0273438,-0.00292969
1481268176044788,0.978027,-0.00830078,-0.0522461
1481268176067319,0.983887,-0.0322266,-0.0322266
1481268176090955,0.977539,-0.00488281,-0.00878906
1481268176104958,0.986816,-0.0361328,-0.0166016
1481268176126936,0.97998,-0.0439453,-0.0556641
1481268176150901,0.983398,-0.0205078,-0.015625
1481268176164862,0.973633,-0.012207,-0.0371094
1481268176187376,0.976563,-0.0195313,-0.0375977
1481268176210380,0.981934,-0.0351563,-0.027832
1481268176224381,0.981445,-0.0229492,-0.0546875
1481268176247379,0.98291,-0.0102539,0.00927734
1481268176271009,0.975586,-0.0126953,-0.0566406
1481268176284519,0.98291,-0.0449219,0.00146484
1481268176307529,0.979492,-0.00927734,-0.0131836
1481268176330519,0.981934,-0.0390625,-0.0341797
1481268176344467,0.976563,-0.0332031,-0.0429688
1481268176367483,0.97998,0.0107422,-0.0209961
1481268176390557,0.979492,-0.0170898,-0.0180664
1481268176404489,0.986328,-0.015625,0.0283203
1481268176427495,0.975098,-0.00976563,-0.0537109
1481268176450560,0.990723,-0.0703125,-0.0488281
1481268176464493,0.988281,-0.0546875,-0.0332031
1481268176487521,0.972656,0.00439453,-0.0307617
1481268176510514,0.980469,-0.00878906,-0.0268555
1481268176532516,0.976074,-0.0253906,-0.0576172
1481268176547520,0.974121,-0.00976563,-0.081543
1481268176579091,0.976563,-0.0112305,-0.0292969
1481268176584535,0.980469,-0.0195313,-0.0214844
1481268176607540,0.976074,-0.015625,-0.0693359
1481268176630541,0.975098,-0.0146484,-0.0244141
1481268176644539,0.976563,0.00146484,-0.0361328
1481268176667547,0.97998,-0.0200195,-0.0195313
1481268176689562,0.981445,-0.0258789,-0.059082
1481268176705558,0.980469,-0.0224609,-0.0185547
1481268176727559,0.974609,-0.0175781,-0.0556641
1481268176749644,0.984375,-0.0292969,-0.0214844
1481268176764574,0.976563,0.00585938,-0.0200195
1481268176795242,0.981445,-0.0151367,-0.043457
1481268176818316,0.970703,-0.0078125,-0.0585938
1481268176825287,0.971191,0.0219727,-0.012207
1481268176847241,0.977051,-0.00390625,-0.0400391
1481268176869823,0.98291,-0.0336914,-0.0400391
1481268176884919,0.981934,-0.0253906,-0.059082
1481268176906829,0.982422,-0.0322266,-0.0268555
1481268176929831,0.985352,-0.0273438,-0.0454102
1481268176944838,0.991699,-0.0673828,-0.0224609
1481268176967427,0.97998,-0.012207,-0.0507813
1481268176989603,0.984863,-0.0341797,-0.0200195
1481268177004661,0.969727,0.0175781,-0.0668945
1481268177027670,0.977539,-0.0102539,-0.0395508
1481268177049698,0.976074,-0.0112305,-0.0556641
1481268177064668,0.972168,-0.00292969,-0.0483398
1481268177087634,0.977539,-0.0258789,-0.0585938
1481268177111699,0.97998,0.012207,-0.012207
1481268177132644,0.975586,-0.00390625,-0.0493164
1481268177147638,0.983887,-0.0444336,-0.0375977
1481268177170239,0.980957,-0.00976563,-0.0268555
1481268177184938,0.984375,-0.0161133,-0.0395508
1481268177207004,0.966309,0.00244141,-0.0698242
1481268177229940,0.985352,-0.0234375,-0.015625
1481268177252939,0.975098,0.00390625,-0.0195313
1481268177267953,0.978516,-0.0161133,-0.0488281
1481268177289459,0.981934,-0.034668,-0.0771484
1481268177313501,0.980469,-0.00878906,-0.0375977
1481268177327529,0.974121,0.00878906,-0.0322266
1481268177349462,0.984863,-0.027832,-0.0375977
1481268177373008,0.983398,-0.0253906,-0.0195313
1481268177387585,0.977051,0.00585938,-0.0258789
1481268177409517,0.983398,-0.0161133,-0.0219727
1481268177433553,0.983887,-0.0185547,-0.0541992
1481268177455519,0.974609,0.00390625,-0.046875
1481268177470096,0.973633,-0.00683594,-0.0571289
1481268177492682,0.981445,-0.0209961,-0.0356445
1481268177508614,0.981934,-0.0136719,-0.0380859
1481268177529612,0.980957,-0.0102539,-0.0268555
1481268177552621,0.980469,-0.015625,-0.0214844
1481268177567693,0.975586,-0.0136719,-0.0498047
1481268177590320,0.977051,-0.0161133,-0.0478516
1481268177612283,0.978516,-0.00927734,-0.0449219
1481268177627359,0.975586,-0.0078125,-0.0317383
1481268177650333,0.97998,-0.0112305,-0.0366211
1481268177672381,0.978027,-0.0107422,-0.0595703
1481268177690423,0.981934,-0.0195313,-0.0522461
1481268177709514,0.977051,-0.00732422,-0.0473633
1481268177732433,0.978027,-0.019043,-0.0556641
1481268177747428,0.979492,-0.0151367,-0.0415039
1481268177769950,0.979004,-0.0146484,-0.0537109
1481268177792110,0.97998,-0.0244141,-0.034668
1481268177807033,0.973145,-0.00830078,-0.0678711
1481268177830032,0.981445,-0.0175781,-0.0166016
1481268177852113,0.977539,-0.0180664,-0.0322266
1481268177867063,0.979492,-0.0195313,-0.0239258
1481268177889799,0.980469,-0.00244141,0.000488281
1481268177912773,0.983398,-0.0356445,-0.0405273
1481268177927797,0.978516,-0.0356445,-0.0581055
1481268177949798,0.979492,-0.0224609,-0.0629883
1481268177972307,0.978027,-0.0180664,-0.0268555
1481268177987317,0.981934,-0.0136719,-0.0229492
1481268178010354,0.980469,-0.0209961,0.000976563
1481268178032343,0.977051,-0.00244141,-0.0678711
1481268178047321,0.98291,-0.0366211,-0.0727539
1481268178069912,0.979492,0.00195313,-0.0273438
1481268178092442,0.982422,-0.0273438,-0.00146484
1481268178107501,0.974121,-0.00195313,-0.0507813
1481268178129426,0.981445,-0.0273438,-0.0380859
1481268178152433,0.977051,-0.00732422,-0.0361328
1481268178167491,0.978027,-0.00585938,-0.0371094
1481268178190114,0.979492,-0.0214844,-0.0478516
1481268178212113,0.979492,-0.00976563,-0.0332031
1481268178227181,0.972168,0.0112305,-0.0273438
1481268178250117,0.983398,-0.0175781,-0.0375977
1481268178272779,0.978027,-0.00927734,-0.0419922
1481268178286869,0.97998,-0.015625,-0.0224609
1481268178309802,0.979004,-0.00146484,-0.0078125
1481268178332803,0.976074,0.0102539,-0.0161133
1481268178347810,0.981934,-0.015625,-0.0419922
1481268178370358,0.979004,-0.0146484,-0.0410156
1481268178392832,0.976563,0.000488281,-0.0161133
1481268178407832,0.984863,-0.019043,-0.03125
1481268178429833,0.983887,-0.0175781,-0.0571289
1481268178451835,0.969727,0.0102539,-0.0356445
1481268178467839,0.980469,-0.0136719,-0.0454102
1481268178489421,0.980957,-0.0185547,-0.0722656
1481268178512417,0.98291,-0.019043,-0.0200195
1481268178529418,0.979004,-0.00146484,0.00585938
1481268178549418,0.980957,-0.0078125,-0.0610352
1481268178572468,0.972656,-0.000488281,-0.0541992
1481268178588561,0.964844,0.00878906,-0.0454102
1481268178609557,0.981445,-0.00732422,-0.0498047
1481268178632558,0.97998,-0.00976563,-0.0620117
1481268178648562,0.981445,-0.012207,-0.0263672
1481268178670088,0.978027,-0.00732422,-0.0131836
1481268178692708,0.973145,-0.00292969,0.0131836
1481268178708621,0.992676,-0.0444336,0.000976563
1481268178729621,0.98291,-0.0117188,0.0341797
1481268178752620,0.981934,-0.00683594,-0.0371094
1481268178776710,0.975098,0.00390625,0.00390625
1481268178798121,0.978027,-0.0102539,-0.0419922
1481268178812045,0.978516,-0.00830078,-0.0214844
1481268178829049,0.971191,0.0180664,0.0522461
1481268178850126,0.989746,-0.0415039,-0.00488281
1481268178872570,0.980957,0.00146484,-0.0429688
1481268178894629,0.980469,-0.00439453,-0.0307617
1481268178909733,0.981934,-0.019043,-0.0322266
1481268178932626,0.984863,-0.0224609,-0.0849609
1481268178954628,0.974121,0.00976563,-0.0151367
1481268178970302,0.982422,-0.0131836,0.0161133
1481268178991954,0.978027,-0.00927734,-0.0888672
1481268179014878,0.977051,0,-0.0849609
1481268179029879,0.986816,0.000488281,0.00976563
1481268179052917,0.988281,-0.0234375,-0.0219727
1481268179074895,0.98584,-0.012207,-0.012207
1481268179090257,0.97998,-0.00390625,-0.00341797
1481268179112201,0.97998,0.00732422,-0.0322266
1481268179135260,0.974609,0.00292969,-0.0400391
1481268179150263,0.982422,-0.0107422,-0.0151367
1481268179172770,0.979492,-0.000976563,0.0224609
1481268179194801,0.975586,0.0078125,0.0170898
1481268179209798,0.977051,-0.000488281,-0.034668
1481268179232770,0.983887,-0.0102539,-0.00634766
1481268179254799,0.98291,-0.0209961,-0.00341797
1481268179270381,0.980957,-0.0107422,0.00634766
1481268179291894,0.981934,-0.00341797,-0.00830078
1481268179314951,0.980469,-0.00439453,-0.0200195
1481268179329893,0.979492,-0.0102539,-0.00146484
1481268179353894,0.984863,-0.0200195,-0.00732422
1481268179374909,0.979492,-0.0185547,-0.012207
1481268179389922,0.98291,-0.0175781,0.0151367
1481268179411920,0.973633,-0.00537109,0.00927734
1481268179435987,0.981445,-0.0117188,0.0126953
1481268179450970,0.983398,-0.0239258,0.027832
1481268179472449,0.977539,0.00244141,-0.000488281
1481268179494571,0.983398,-0.015625,0.0341797
1481268179511572,0.978516,-0.0185547,0.0361328
1481268179540671,0.980469,-0.0161133,0.0170898
1481268179554600,0.980469,-0.015625,0.0449219
1481268179571620,0.975586,0.0292969,-0.0761719
1481268179592767,0.980469,0.00292969,-0.0170898
1481268179614736,0.981934,-0.00683594,-0.0297852
1481268179638718,0.979004,-0.00439453,-0.00390625
1481268179652768,0.980957,-0.0205078,0.00439453
1481268179674832,0.974609,0.00439453,-0.0361328
1481268179691340,0.977539,-0.00683594,-0.0429688
1481268179712345,0.97998,-0.00634766,-0.00976563
1481268179736345,0.978516,-0.00585938,-0.00292969
1481268179751348,0.982422,-0.00439453,0.00244141
1481268179772354,0.978027,-0.0078125,0.00195313
1481268179795267,0.979492,-0.00878906,0.00585938
1481268179811206,0.981445,-0.0117188,-0.00439453
1481268179832210,0.981934,-0.00244141,-0.0268555
1481268179855240,0.97998,-0.000488281,0.0102539
1481268179871300,0.980957,-0.00976563,0.0131836
1481268179892843,0.980469,-0.0117188,0.0107422
1481268179914867,0.979004,-0.0136719,0.0200195
1481268179936860,0.979492,-0.00439453,0.0375977
1481268179951853,0.981934,-0.0102539,0.00146484
1481268179974861,0.981445,-0.0141602,0.00292969
1481268179990962,0.987305,-0.0385742,0.0820313
1481268180012919,0.981934,-0.00585938,0.0078125
1481268180034904,0.979004,0.00927734,0.00292969
1481268180050938,0.977539,0.00390625,0.03125
1481268180072522,0.976074,0.00146484,0.0151367
1481268180095080,0.978027,0.0141602,0.0263672
1481268180111076,0.97998,0.00537109,0.00390625
1481268180132076,0.97998,-0.00732422,-0.00683594
1481268180163078,0.984375,-0.00292969,0.0107422
1481268180171596,0.977539,-0.00195313,0.0195313
1481268180192703,0.991211,-0.0283203,0.000488281
1481268180214704,0.979492,0.000488281,-0.0224609
1481268180231682,0.981934,-0.00927734,-0.0136719
1481268180252648,0.983887,-0.00390625,0.0400391
1481268180275156,0.980469,-0.0146484,-0.0229492
1481268180291329,0.984375,-0.0200195,0.0175781
1481268180312331,0.978027,-0.00976563,0.0263672
1481268180335370,0.980957,-0.00390625,-0.0649414
1481268180351333,0.983398,-0.0166016,0.00976563
1481268180372346,0.978516,-0.015625,0.0581055
1481268180394578,0.98291,-0.00439453,-0.015625
1481268180411577,0.978027,0.0146484,-0.0742188
1481268180448578,0.973633,0.00341797,-0.00732422
1481268180464579,0.987793,-0.00195313,-0.0473633
1481268180486624,0.983398,-0.0239258,-0.0922852
1481268180493814,0.980957,-0.00927734,-0.0117188
1481268180514813,0.983398,-0.0410156,0.0874023
1481268180545814,0.978516,0.0136719,-0.0566406
1481268180569817,0.972168,0.0136719,0.0166016
1481268180577325,0.983398,0.00732422,-0.00488281
1481268180606075,0.995605,-0.0644531,0.100098
1481268180615067,0.98584,-0.0424805,0.0722656
1481268180635069,0.966797,0.0668945,-0.129395
1481268180665072,0.975586,0,0.102051
1481268180682708,0.982422,0.0102539,-0.106934
1481268180705256,0.982422,-0.00830078,0.0517578
1481268180727265,0.982422,0.00244141,0.0078125
1481268180756338,0.980469,-0.0166016,-0.0102539
1481268180757260,0.975098,0.0170898,-0.0214844
1481268180777806,0.980469,-0.00146484,0.0288086
1481268180793409,0.979004,-0.00439453,0.0234375
1481268180815347,0.975098,0.0180664,-0.0429688
1481268180837346,0.977539,0.000488281,-0.0644531
1481268180853407,0.983887,-0.0415039,0.00830078
1481268180874860,0.98877,-0.0410156,0.0356445
1481268180897531,0.979492,-0.00341797,-0.0742188
1481268180913534,0.976074,-0.00585938,-0.0185547
1481268180934613,0.983398,-0.0170898,0.0571289
1481268180957534,0.977051,-0.00292969,-0.015625
1481268180974125,0.975586,0.00927734,-0.074707
1481268180997663,0.975586,0.00439453,0.0551758
1481268181017710,0.984863,-0.0131836,-0.0678711
1481268181041667,0.967285,0.0366211,-0.148926
1481268181054671,0.979492,0.0205078,-0.0131836
1481268181077714,0.973633,0.0185547,0.0854492
1481268181093292,0.979004,0.00146484,0.00976563
1481268181115256,0.976563,0.0297852,-0.0908203
1481268181137194,0.982422,-0.0268555,0.0732422
1481268181153291,0.986816,-0.027832,0.0683594
1481268181175348,0.975586,-0.00537109,-0.0112305
1481268181196897,0.97998,-0.00683594,-0.0195313
1481268181213898,0.98291,-0.0126953,0.012207
1481268181234898,0.983887,-0.0126953,-0.00634766
1481268181257943,0.975586,0.000488281,-0.0454102
1481268181273911,0.978027,-0.00439453,-0.0102539
1481268181296423,0.97998,-0.00830078,0.00146484
1481268181317486,0.980957,-0.00390625,-0.0161133
1481268181333483,0.97998,-0.0126953,-0.0253906
1481268181356420,0.985352,-0.0151367,-0.0126953
1481268181377430,0.981934,-0.019043,-0.012207
1481268181393505,0.984863,-0.0146484,-0.00976563
1481268181416442,0.984863,-0.0234375,-0.0205078
1481268181437442,0.983887,-0.0180664,-0.0239258
1481268181453462,0.984375,-0.00927734,-0.000488281
1481268181476951,0.981445,-0.0107422,-0.0332031
1481268181497006,0.978516,-0.0239258,-0.0107422
1481268181514011,0.984863,-0.0249023,-0.000488281
1481268181536047,0.978027,-0.0166016,0.00878906
1481268181557090,0.976074,0.00292969,-0.0385742
1481268181581546,0.986328,-0.0463867,-0.0263672
1481268181596510,0.973633,0.0249023,-0.0649414
1481268181617588,1.00732,-0.0810547,-0.180664
1481268181633511,0.975098,-0.0478516,0.164063
1481268181656515,0.972656,-0.019043,0.0322266
1481268181677574,0.977051,-0.0131836,0.0424805
1481268181693596,0.979492,-0.019043,0.0126953
1481268181716581,0.984863,-0.0175781,-0.0102539
1481268181737656,0.974121,0.0146484,-0.0131836
1481268181753579,0.97998,-0.0385742,0.0429688
1481268181778157,0.979492,-0.0102539,-0.00732422
1481268181797512,0.98291,0.00732422,-0.0424805
1481268181813542,0.984375,-0.0385742,0.00537109
1481268181836514,0.97168,0.00195313,0.0356445
1481268181857515,0.975586,0.00292969,-0.0361328
1481268181874024,0.990234,-0.0219727,-0.074707
1481268181896584,0.976563,0.00390625,-0.0136719
1481268181925604,0.990234,-0.0219727,-0.0415039
1481268181941582,0.97998,-0.0307617,-0.0136719
1481268181956587,0.980469,0.00732422,-0.0332031
1481268181977597,0.981934,-0.012207,0.0112305
1481268181993638,0.986816,0.00244141,-0.0229492
1481268182016636,0.978027,0.000488281,-0.0195313
1481268182037718,0.97998,-0.000488281,-0.0483398
1481268182059721,0.986328,-0.0473633,0.0253906
1481268182078359,0.987793,-0.034668,0.0541992
1481268182105981,0.983887,-0.0185547,0.012207
1481268182113979,0.986816,-0.0146484,-0.0834961
1481268182143981,0.981445,-0.0131836,-0.0224609
1481268182157062,0.98291,-0.0209961,-0.065918
1481268182174080,0.985352,-0.0141602,-0.0244141
1481268182196587,0.976074,-0.00830078,0.0419922
1481268182217585,0.98584,-0.0107422,-0.0400391
1481268182239586,0.967285,0.00585938,0.00976563
1481268182256588,0.999023,-0.100098,-0.0825195
1481268182277600,0.981445,-0.0258789,-0.0185547
1481268182299615,0.983887,-0.0224609,-0.0615234
1481268182316612,0.962891,0.0273438,0.0698242
1481268182338613,0.980469,-0.0273438,-0.0766602
1481268182359626,0.986328,-0.0302734,-0.107422
1481268182376623,1.00488,-0.100586,0.00976563
1481268182406638,0.983398,-0.00146484,0.120117
1481268182419688,0.965332,0.0678711,-0.15918
1481268182436638,0.987305,-0.00683594,-0.0463867
1481268182459638,0.966797,0.00732422,0.13623
1481268182480149,0.980957,0.00830078,-0.0537109
1481268182496659,0.980957,-0.00927734,-0.0170898
1481268182518663,0.981445,-0.00683594,-0.00878906
1481268182539740,0.98291,-0.0136719,0.0117188
1481268182556663,0.980957,-0.0185547,-0.0219727
1481268182579218,0.97998,-0.0371094,0.0341797
1481268182601243,0.991699,-0.0644531,-0.00878906
1481268182616219,0.983398,-0.0244141,-0.0551758
1481268182639255,0.96875,0.0629883,0.0253906
1481268182663236,0.996094,-0.0566406,-0.0595703
1481268182676801,0.98291,-0.0483398,-0.0253906
1481268182698811,0.990723,-0.0273438,-0.0166016
1481268182727815,0.988281,-0.0385742,-0.019043
1481268182736811,0.979492,-0.00488281,-0.0288086
1481268182758816,0.972168,0.0146484,-0.0170898
1481268182779827,0.975586,0.0341797,-0.0366211
1481268182795838,0.983887,-0.0288086,-0.0317383
1481268182818836,0.979004,-0.000488281,0.00634766
1481268182839950,0.979004,0.0117188,-0.0371094
1481268182855881,0.983398,-0.0219727,-0.00585938
1481268182878921,0.977051,0.00830078,0.0371094
1481268182899557,0.978516,-0.0390625,0.0273438
1481268182916459,0.976074,-0.0112305,0.0439453
1481268182940461,0.98584,-0.0566406,-0.0244141
1481268182962460,0.985352,-0.0229492,-0.019043
1481268182976555,0.97998,-0.0195313,-0.0185547
1481268182999064,0.980469,-0.0185547,-0.0200195
1481268183020142,0.981445,-0.0283203,-0.00585938
1481268183036110,0.979492,-0.00439453,-0.00732422
1481268183059068,0.977051,-0.00976563,-0.0161133
1481268183080079,0.980957,-0.0112305,-0.0161133
1481268183096617,0.975586,-0.00195313,-0.0351563
1481268183118619,0.98584,-0.0205078,-0.0317383
1481268183139691,0.982422,-0.0234375,0.00488281
1481268183155697,0.980957,-0.0239258,-0.0239258
1481268183185821,0.978027,0.00488281,0.00488281
1481268183200238,0.980957,0.00683594,0.0229492
1481268183215241,0.976563,-0.0078125,0.00830078
1481268183239245,0.973633,-0.019043,0.0185547
1481268183260246,0.981934,-0.0180664,-0.0332031
1481268183275796,0.989258,-0.0424805,-0.00878906
1481268183298310,0.978027,-0.00390625,0.027832
1481268183322309,0.979492,-0.0112305,-0.0322266
1481268183337309,0.980469,-0.00878906,-0.0336914
1481268183358310,0.983887,-0.0263672,0.00537109
1481268183380821,0.981934,-0.00976563,0
1481268183397334,0.982422,-0.0371094,-0.00634766
1481268183418331,0.979492,-0.0131836,0.00976563
1481268183440336,0.975586,-0.00146484,-0.0234375
1481268183456334,0.977539,-0.0107422,-0.0292969
1481268183478350,0.980469,-0.0444336,0.0185547
1481268183500100,0.974609,-0.0107422,0.00439453
1481268183524025,0.984375,-0.0356445,0.0170898
1481268183546056,0.983887,-0.00244141,-0.0297852
1481268183562027,0.982422,-0.0322266,-0.00927734
1481268183583147,0.980469,-0.0175781,0.00976563
1481268183598503,0.98291,-0.0214844,-0.0205078
1481268183620462,0.979004,-0.0185547,0.0112305
1481268183643495,0.976074,-0.0244141,-0.00634766
1481268183658543,0.98291,-0.0151367,-0.00390625
1481268183681019,0.981934,-0.0288086,-0.0195313
1481268183710993,0.980957,-0.00830078,-0.00195313
1481268183717989,0.978516,-0.00634766,-0.0317383
1481268183741039,0.978516,0,0.059082
1481268183763009,0.981934,-0.00683594,-0.0366211
1481268183778503,0.974121,-0.0327148,0.0942383
1481268183800624,0.981445,-0.0253906,-0.0126953
1481268183823574,0.980957,-0.0268555,0.059082
1481268183837613,0.993164,-0.0078125,-0.0678711
1481268183860547,0.972168,-0.00244141,0.0244141
1481268183883071,0.980957,-0.0180664,0.00976563
1481268183898010,0.979004,-0.0253906,0.0375977
1481268183920996,0.977539,-0.0161133,0.0166016
1481268183942938,0.974121,-0.0117188,-0.0078125
1481268183958035,0.979004,-0.0136719,0.00439453
1481268183981009,0.97168,-0.0234375,0.015625
1481268184003539,0.975098,-0.019043,0.0239258
1481268184017484,0.990723,-0.0258789,-0.0449219
1481268184056580,0.976563,-0.015625,0.0410156
1481268184071500,0.972656,-0.00585938,0.0273438
1481268184078560,0.977051,-0.00292969,0.0546875
1481268184107713,0.98877,-0.0375977,-0.0146484
1481268184122688,0.980957,0.00244141,-0.0107422
1481268184137687,0.983887,-0.0366211,-0.00195313
1481268184160610,0.984375,-0.0449219,-0.0200195
1481268184183131,0.978516,-0.0273438,-0.0151367
1481268184197991,0.984375,-0.0185547,-0.0415039
1481268184221054,0.980469,-0.0454102,0.0463867
1481268184242993,0.983887,-0.0185547,0.00341797
1481268184259990,0.986328,-0.0424805,-0.0229492
1481268184281034,0.978027,-0.0268555,-0.00830078
1481268184303012,0.982422,-0.0307617,-0.0166016
1481268184319011,0.979492,-0.0166016,-0.0239258
1481268184341053,0.979492,-0.0273438,0.00830078
1481268184363011,0.978516,-0.0200195,0.00341797
1481268184382025,0.975586,-0.0229492,0.00146484
1481268184401048,0.980957,-0.0151367,-0.0214844
1481268184423032,0.984375,-0.0209961,0.015625
1481268184439099,0.977539,-0.00830078,-0.0273438
1481268184468035,0.977539,-0.0166016,-0.0136719
1481268184490627,0.977051,-0.0151367,-0.0263672
1481268184499691,0.975586,-0.000976563,-0.0302734
1481268184520708,0.979492,-0.0366211,-0.0112305
1481268184544690,0.97998,-0.0361328,-0.00976563
1481268184566694,0.982422,-0.0151367,0.00634766
1481268184580818,0.983398,-0.0136719,-0.0283203
1481268184602945,0.980469,-0.0317383,-0.0336914
1481268184627852,0.976563,-0.0185547,-0.0107422
1481268184640908,0.977051,-0.0195313,-0.0180664
1481268184662932,0.98291,-0.0258789,-0.0239258
1481268184679867,0.978027,-0.0151367,-0.0288086
1481268184701024,0.981934,-0.0112305,-0.0288086
1481268184723101,0.976563,-0.0258789,-0.0307617
1481268184739085,0.981934,-0.0200195,-0.0488281
1481268184761062,0.980957,-0.0297852,-0.0371094
1481268184783136,0.981934,-0.015625,-0.0112305
1481268184799307,0.980469,-0.00537109,-0.0229492
1481268184828301,0.980469,-0.0292969,-0.00585938
1481268184843303,0.979492,-0.0263672,-0.0356445
1481268184860303,0.979004,-0.0229492,-0.0263672
1481268184880820,0.980469,-0.0229492,-0.00634766
1481268184903439,0.97998,-0.0166016,-0.019043
1481268184919383,0.980469,-0.0166016,-0.00439453
1481268184940454,0.984375,-0.0273438,-0.0234375
1481268184963373,0.97998,-0.0268555,0.00683594
1481268184979920,0.982422,-0.0292969,-0.0268555
1481268185000449,0.982422,-0.0258789,-0.0258789
1481268185023502,0.982422,-0.0244141,-0.0327148
1481268185039438,0.976074,-0.012207,-0.0151367
1481268185060442,0.979492,-0.0146484,-0.00830078
1481268185083485,0.981445,-0.03125,-0.0102539
1481268185098563,0.982422,-0.0322266,-0.012207
1481268185120510,0.977051,-0.0288086,-0.0253906
1481268185143554,0.979492,-0.0332031,-0.0390625
1481268185158527,0.981934,-0.0268555,-0.0185547
1481268185182093,0.982422,-0.0253906,-0.0292969
1481268185203105,0.979004,-0.0273438,-0.0307617
1481268185219102,0.976563,-0.019043,-0.0473633
1481268185242102,0.984375,-0.0185547,-0.0336914
1481268185263108,0.976074,-0.015625,-0.050293
1481268185279131,0.975586,-0.0112305,-0.0625
1481268185302121,0.981934,-0.0131836,-0.0429688
1481268185323123,0.977051,-0.00244141,-0.0322266
1481268185339128,0.978516,-0.0180664,-0.0742188
1481268185368129,0.976563,-0.00732422,-0.0541992
1481268185383137,0.97998,-0.0102539,-0.0375977
1481268185399156,0.977051,0.00634766,-0.0380859
1481268185422157,0.982422,-0.0112305,-0.0493164
1481268185443153,0.98291,-0.0141602,-0.0390625
1481268185467155,0.979492,-0.0166016,-0.0629883
1481268185482166,0.978516,-0.00292969,-0.0512695
1481268185503234,0.978027,-0.0175781,-0.0473633
1481268185519176,0.978027,-0.0117188,-0.0581055
1481268185542184,0.97168,-0.015625,-0.0859375
1481268185563178,0.975586,-0.00390625,-0.0537109
1481268185585755,0.97998,-0.0146484,-0.059082
1481268185602206,0.979004,-0.012207,-0.0541992
1481268185623285,0.977051,-0.0239258,-0.0708008
1481268185647205,0.978516,-0.0102539,-0.0375977
1481268185662268,0.975586,-0.0185547,-0.0678711
1481268185683222,0.974121,-0.0107422,-0.0786133
1481268185706113,0.97998,-0.00927734,-0.0351563
1481268185723007,0.982422,-0.0180664,-0.0405273
1481268185743008,0.980957,-0.0209961,-0.0551758
1481268185766048,0.978516,-0.0151367,-0.0395508
1481268185782024,0.979492,-0.0185547,-0.0615234
1481268185803532,0.977051,-0.0200195,-0.0390625
1481268185825535,0.978516,-0.0185547,-0.0571289
1481268185841585,0.979004,-0.0244141,-0.0405273
1481268185863600,0.97998,-0.0229492,-0.0507813
1481268185879062,0.977539,-0.0214844,-0.046875
1481268185901632,0.979492,-0.019043,-0.0439453
1481268185923608,0.978516,-0.0239258,-0.0541992
1481268185945650,0.978516,-0.0239258,-0.0444336
1481268185961637,0.981934,-0.0253906,-0.0454102
1481268185998687,0.979004,-0.019043,-0.0571289
1481268186012688,0.975586,-0.0234375,-0.0605469
1481268186021690,0.981445,-0.0209961,-0.0478516
1481268186042667,0.97998,-0.0219727,-0.0200195
1481268186065665,0.977539,-0.0209961,-0.0512695
1481268186081686,0.976563,-0.0205078,-0.0556641
1481268186102702,0.979004,-0.0229492,-0.0683594
1481268186125705,0.978516,-0.0151367,-0.0244141
1481268186141767,0.979492,-0.0131836,-0.0454102
1481268186164702,0.977539,-0.0205078,-0.0493164
1481268186185807,0.979492,-0.0336914,-0.043457
1481268186201797,0.980469,-0.0239258,-0.0498047
1481268186224798,0.97998,-0.0209961,-0.059082
1481268186245800,0.981445,-0.0200195,-0.0507813
1481268186267797,0.976563,-0.0117188,-0.046875
1481268186290811,0.980469,-0.00927734,-0.0390625
1481268186305822,0.97998,-0.0205078,-0.0405273
1481268186321819,0.975586,-0.0239258,-0.0717773
1481268186344824,0.978027,-0.0214844,-0.0366211
1481268186365821,0.978516,-0.00585938,-0.0537109
1481268186388833,0.974609,-0.015625,-0.0605469
1481268186404848,0.976074,-0.0214844,-0.0708008
1481268186425850,0.978027,-0.0185547,-0.0673828
1481268186440845,0.980957,-0.0161133,-0.0424805
1481268186471846,0.976563,-0.0161133,-0.0556641
1481268186485863,0.977539,-0.0180664,-0.0600586
1481268186509871,0.983398,-0.0161133,-0.0458984
1481268186530938,0.978516,-0.0180664,-0.0615234
1481268186546876,0.981934,-0.0205078,-0.0522461
1481268186569876,0.980469,-0.0209961,-0.0546875
1481268186584940,0.97998,-0.0200195,-0.0351563
1481268186605939,0.975098,-0.0195313,-0.0620117
1481268186620969,0.982422,-0.0214844,-0.0400391
1481268186644971,0.975098,-0.0244141,-0.0341797
1481268186665912,0.97998,-0.0205078,-0.0454102
1481268186681983,0.978027,-0.0302734,-0.0356445
1481268186704799,0.978027,-0.0166016,-0.0473633
1481268186725803,0.97998,-0.0229492,-0.0327148
1481268186741773,0.979492,-0.0229492,-0.0400391
1481268186770817,0.978516,-0.0209961,-0.0512695
1481268186785940,0.981445,-0.019043,-0.027832
1481268186801654,0.978027,-0.0185547,-0.0297852
1481268186824655,0.976074,-0.00976563,-0.0585938
1481268186845680,0.978516,-0.0258789,-0.0253906
