timestamp,emg1,emg2,emg3,emg4,emg5,emg6,emg7,emg8
1481268171569344,-7,1,-5,-2,-2,-8,-2,-5
1481268171569344,-3,-2,-4,-6,-9,-8,-5,-9
1481268171570842,6,2,4,1,4,9,2,1
1481268171570842,1,-1,-1,0,-3,-3,-2,-5
1481268171583845,-2,1,-2,-6,-2,-8,-5,-5
1481268171583845,4,1,2,1,5,3,4,6
1481268171585844,2,2,3,-1,-1,1,0,-1
1481268171585844,-1,-1,0,3,1,-2,-7,-6
1481268171597345,-1,-3,1,-3,3,2,0,-1
1481268171597345,0,1,4,3,6,1,6,2
1481268171606346,-4,-7,-4,-2,-1,-1,-4,-1
1481268171606346,-5,-3,-4,2,-2,-3,-3,1
1481268171620915,9,3,0,-3,-5,-2,-2,-1
1481268171620915,-2,2,-3,-10,-9,-3,-3,-3
1481268171627348,-3,-3,-4,-3,-2,-4,-5,-2
1481268171627348,1,2,3,-1,-4,0,2,-2
1481268171643851,-8,-5,-2,-9,-6,-10,-1,-3
1481268171643851,-4,-4,0,3,0,-3,-3,-7
1481268171645352,1,5,10,5,1,2,5,1
1481268171645352,0,4,-2,4,3,1,0,6
1481268171657352,-1,0,-3,3,-1,3,-4,-1
1481268171657352,0,0,3,6,12,4,1,0
1481268171666355,1,3,1,2,1,0,2,4
1481268171666355,-7,-6,-7,-12,-10,-8,-7,-7
1481268171680919,-5,-6,-7,-4,-7,-3,-2,-4
1481268171680919,3,-3,3,-2,0,4,2,6
1481268171687356,0,-5,-6,-5,-8,-6,-1,2
1481268171687356,-8,-6,-5,-7,-8,-6,1,-6
1481268171703859,5,4,6,9,15,11,5,4
1481268171703859,5,6,2,11,5,6,5,1
1481268171705358,-3,-6,-4,-1,-1,-5,-5,-1
1481268171705358,7,3,3,15,17,14,6,4
1481268171717360,1,-1,5,1,2,1,2,5
1481268171717360,-8,-9,-8,-14,-14,-10,-9,-6
1481268171726361,-5,-6,-8,-8,-4,-3,-5,0
1481268171726361,3,4,7,2,4,2,1,7
1481268171740864,-4,-7,-7,-12,-11,-9,-2,-6
1481268171740864,-7,-5,-3,-6,-7,-6,-6,-10
1481268171747364,2,6,8,5,8,6,5,9
1481268171747364,2,2,0,1,-1,2,-1,1
1481268171763866,-3,-3,-5,-2,-1,-2,-6,-7
1481268171763866,4,5,1,8,8,3,2,-1
1481268171765367,3,4,4,8,-1,6,3,5
1481268171765367,-7,-8,-9,-6,-3,-10,-1,-8
1481268171777369,-5,-3,-2,-1,-7,-5,-4,-1
1481268171777369,4,2,2,5,2,9,1,4
1481268171786378,-1,-2,-4,-7,-7,-6,-3,-10
1481268171786378,-8,-9,-5,-8,-10,-4,-4,-4
1481268171800456,10,5,4,6,-2,3,2,2
1481268171800456,-4,2,2,-2,-3,-1,4,1
1481268171807385,-6,-6,-5,-9,-12,-8,-9,-8
1481268171807385,5,3,4,-2,-4,2,-2,2
1481268171823958,1,-1,3,3,7,6,5,4
1481268171823958,-7,-6,-7,-2,-5,-6,-5,-5
1481268171824896,-3,3,-1,0,10,2,0,-3
1481268171824896,0,5,2,4,2,1,2,7
1481268171845895,-4,-3,-2,-3,-2,-2,-3,2
1481268171845895,-5,-10,-6,-6,-8,-3,-4,-7
1481268171847896,2,5,6,0,1,1,5,4
1481268171847896,-2,-8,1,-6,-4,-3,1,-4
1481268171868955,-7,-8,-9,-8,-5,-2,2,-9
1481268171868955,1,1,-1,-6,-3,-5,-4,8
1481268171869896,2,3,6,4,5,6,4,1
1481268171869896,-4,0,-3,3,2,3,3,-1
1481268171882896,3,7,4,6,8,3,2,5
1481268171882896,4,4,2,2,4,5,7,6
1481268171889897,0,-5,1,-4,-8,-3,-1,-6
1481268171889897,-6,-6,-5,-7,-2,-6,-5,-7
1481268171896899,-1,0,-1,-8,-8,1,5,2
1481268171896899,1,0,-5,-4,-4,-1,-2,-3
1481268171906908,-3,-7,-3,-9,-4,-7,-5,-3
1481268171906908,3,-1,0,-1,-6,2,-1,-2
1481268171920501,4,4,7,-3,-1,3,-2,-2
1481268171920501,-4,-3,1,4,6,0,-2,-4
1481268171927513,2,0,4,7,4,1,0,-1
1481268171927513,2,0,2,5,3,4,5,6
1481268171943433,-4,-3,-3,-1,-2,3,-2,-1
1481268171943433,-3,-3,-3,0,0,-2,-1,-4
1481268171949433,-2,-2,-5,-3,-6,2,4,-2
1481268171949433,-1,-1,-1,-7,-2,-9,-7,-3
1481268171966489,-5,0,-6,-4,2,-4,-7,-9
1481268171966489,2,-3,1,-2,3,-1,3,-3
1481268171967433,-4,-3,1,-4,-4,-2,0,6
1481268171967433,1,-1,-5,-3,-3,-1,-2,-6
1481268171980434,2,0,2,6,6,1,4,2
1481268171980434,2,4,3,-1,-3,3,-2,9
1481268171987438,-5,-3,-5,-4,-4,-3,-9,-2
1481268171987438,-2,-1,2,5,4,1,3,-2
1481268172002542,-2,-4,-1,-4,0,-1,-2,6
1481268172002542,-4,2,-5,-9,-2,-7,1,-2
1481268172009947,-3,-2,-2,-8,0,-8,-5,-5
1481268172009947,0,-1,5,4,7,3,-2,7
1481268172026544,2,-2,1,-1,-5,-1,3,2
1481268172026544,-6,-11,-3,-11,-7,-6,-15,-9
1481268172027479,1,-4,-8,-4,-7,-2,-2,-4
1481268172027479,2,2,7,1,3,4,5,7
1481268172040551,-4,-5,-7,-10,-4,-11,-5,-7
1481268172040551,-2,1,-3,4,3,4,-1,3
1481268172047499,1,6,6,10,7,5,4,7
1481268172047499,1,1,2,9,4,2,4,0
1481268172062546,-5,-7,-4,-6,-5,-10,-7,-2
1481268172062546,2,4,2,9,7,8,7,1
1481268172069506,-1,2,-1,-3,-6,2,0,0
1481268172069506,-1,-7,-9,-17,-16,-12,-5,-5
1481268172086516,-2,1,-3,-5,-8,-7,-1,-3
1481268172086516,3,5,5,8,6,0,0,0
1481268172087484,-5,-4,-8,-4,-6,-1,2,-5
1481268172087484,-2,-2,1,0,-2,-2,0,1
1481268172100493,8,2,9,11,11,14,8,10
1481268172100493,5,4,4,13,9,5,4,2
1481268172107499,-1,-8,-4,-7,-7,-8,-7,-2
1481268172107499,0,4,2,2,1,0,-2,-4
1481268172130605,0,2,-1,-3,0,-6,5,0
1481268172130605,-6,-10,-4,-9,-8,-10,-1,-8
1481268172137617,-1,-8,-11,-10,-5,-5,-5,-5
1481268172137617,7,2,0,2,0,2,-1,5
1481268172146644,-2,-1,-3,-2,-3,-2,-5,-2
1481268172146644,-1,1,-3,1,-4,-1,2,0
1481268172147582,8,8,8,10,10,10,3,4
1481268172147582,3,7,2,11,9,6,4,4
1481268172160659,-9,-5,-7,-2,-5,-8,0,-9
1481268172160659,3,3,1,-5,2,0,-3,3
1481268172167644,2,4,2,4,6,-2,-1,3
1481268172167644,-6,-9,-11,-7,-8,-2,0,-4
1481268172182582,-1,-5,-1,-4,-9,-6,-5,-5
1481268172182582,6,3,4,1,5,4,6,6
1481268172189661,-1,-4,-4,1,2,-2,-2,-4
1481268172189661,-2,-1,-5,-3,3,-1,-5,-5
1481268172206094,3,7,-2,4,8,7,2,7
1481268172206094,-2,-1,3,0,-2,4,2,-6
1481268172208157,-4,0,-1,5,5,-4,0,-2
1481268172208157,1,4,4,5,4,2,5,4
1481268172220095,5,2,3,5,6,2,0,-1
1481268172220095,-4,-5,-8,-3,-4,-7,-5,-3
1481268172227104,-4,0,1,0,-1,2,5,2
1481268172227104,2,-4,3,-5,-7,-2,-2,4
1481268172243173,-7,-3,-7,-6,-10,-5,-7,-6
1481268172243173,1,2,-3,-4,-1,-3,0,-5
1481268172250148,2,-4,1,-2,0,2,1,-1
1481268172250148,1,-1,-6,-11,-2,-11,0,-5
1481268172266108,0,-2,-3,1,-3,2,-2,1
1481268172266108,-1,6,7,6,4,6,3,7
1481268172268142,-1,5,2,4,6,5,4,4
1481268172268142,-5,-2,-4,-1,3,0,-5,-3
1481268172280120,1,1,6,11,13,8,7,2
1481268172280120,5,4,0,0,2,-1,7,3
1481268172287107,-8,-9,-11,-8,-5,-7,-2,-7
1481268172287107,-5,-5,-3,-8,-7,-3,-5,-6
1481268172303110,-3,5,3,-6,-5,-2,2,-3
1481268172303110,-8,-11,-6,-20,-17,-12,-7,-10
1481268172309651,-5,-2,1,-2,-4,-4,-3,-4
1481268172309651,7,8,7,9,11,6,5,2
1481268172326165,6,7,4,5,4,0,0,-1
1481268172326165,-6,3,-1,3,2,-1,-6,-5
1481268172327164,6,9,1,8,10,1,0,4
1481268172327164,1,2,5,0,0,1,5,2
1481268172340161,-9,-8,-6,-11,-12,-7,-9,-5
1481268172340161,-7,-3,-8,-7,-5,-4,-8,-3
1481268172347162,5,4,0,-2,3,-1,3,3
1481268172347162,-3,-1,-8,-13,-13,-6,-4,-1
1481268172363168,-9,-7,-5,-5,-1,-3,-5,-8
1481268172363168,7,4,10,8,3,7,8,7
1481268172385164,4,4,4,-1,1,5,2,4
1481268172385164,-9,-6,-2,-6,-2,-3,-4,-4
1481268172416240,4,6,7,8,6,7,4,6
1481268172416240,9,5,6,3,3,8,6,10
1481268172432221,-11,-2,-6,-10,-15,-11,-9,-11
1481268172432221,-6,-4,-2,0,2,-2,-7,-4
1481268172433188,7,7,2,3,4,-1,6,6
1481268172433188,-1,-6,-8,-3,-2,0,-4,-5
1481268172434188,-7,-9,-7,-6,-8,-7,-13,-9
1481268172434188,4,7,5,5,6,11,4,7
1481268172438189,0,-2,2,-2,-2,-2,2,0
1481268172438189,-7,-7,-5,-8,-10,-7,-6,-2
1481268172448190,6,-1,5,-3,-1,5,2,3
1481268172448190,5,7,1,9,8,6,7,7
1481268172449189,-6,-7,-4,-1,-1,-3,-5,-5
1481268172449189,-1,-1,-1,3,6,2,-1,2
1481268172451189,3,11,6,9,8,3,6,8
1481268172451189,1,-3,-3,-5,-4,-2,-5,-2
1481268172459189,-4,-8,-7,-6,-6,-7,-4,-10
1481268172459189,5,5,3,-1,-4,1,0,1
1481268172468190,-3,1,-2,-7,-6,-1,0,-2
1481268172468190,-6,-2,-4,-6,-14,-6,-9,-10
1481268172483293,-4,2,-4,-1,-2,-1,-2,1
1481268172483293,8,5,6,2,5,2,2,4
1481268172489195,-5,-8,-3,4,1,-1,-4,0
1481268172489195,1,4,2,11,5,0,4,4
1481268172506206,4,1,6,3,4,4,4,7
1481268172506206,-4,3,-4,5,-1,-9,-5,-9
1481268172507771,-5,-3,-4,-3,-2,-7,3,-5
1481268172507771,6,1,1,-8,-3,-5,5,-7
1481268172519707,-6,-5,-8,-7,-13,-1,0,3
1481268172519707,-4,-7,-3,-5,-9,-1,-1,-8
1481268172528800,1,-1,-1,-4,-2,-1,1,-2
1481268172528800,1,0,-2,-2,-1,2,1,1
1481268172542795,2,2,1,3,9,-5,-4,-3
1481268172542795,4,5,6,8,2,10,1,3
1481268172549769,4,2,8,3,2,6,4,4
1481268172549769,-6,-5,0,-1,-6,-4,-5,-1
1481268172565811,-1,4,1,-2,-2,-4,-6,-4
1481268172565811,1,0,-5,-1,1,3,-1,3
1481268172567795,-1,-1,-7,-8,-8,-4,-4,0
1481268172567795,-6,-9,-8,-3,-7,-3,-4,-9
1481268172579796,2,3,4,2,3,5,3,1
1481268172579796,-4,-3,-4,-3,-3,0,1,1
1481268172588795,-1,-4,-6,2,0,-4,-5,-2
1481268172588795,5,5,5,4,3,6,5,2
1481268172603764,4,-2,6,-1,-5,4,1,3
1481268172603764,-4,-7,-3,-9,-2,-6,-1,-6
1481268172611304,1,2,0,3,3,2,0,-2
1481268172611304,2,6,5,1,4,2,2,6
1481268172625946,-3,-8,-3,-7,3,-8,-1,-2
1481268172625946,-4,-10,-1,-9,-7,-6,-4,-3
1481268172627853,3,7,5,6,2,7,4,5
1481268172627853,0,-2,-6,-3,-4,-5,-4,2
1481268172655854,-1,-5,-6,-11,-12,-8,-5,-11
1481268172655854,1,-4,4,0,8,3,8,3
1481268172657855,2,4,3,3,2,2,1,1
1481268172657855,-4,-12,-4,-9,-7,-9,-4,-7
1481268172671947,0,5,4,3,5,5,2,1
1481268172671947,7,6,6,7,8,7,8,6
1481268172673857,-2,0,1,4,-1,-2,-1,2
1481268172673857,-6,0,-9,-6,-2,-5,-7,-1
1481268172693859,6,3,6,5,9,5,5,9
1481268172693859,-2,-1,-5,-4,-1,-4,-1,-4
1481268172694906,-3,-9,-5,-8,-7,-12,-7,-7
1481268172694906,-5,-2,-3,-7,-11,-1,-1,1
1481268172699859,2,2,0,1,4,5,5,2
1481268172699859,-7,0,-5,-6,-10,-5,-10,-6
1481268172708867,4,0,-1,-2,3,3,3,0
1481268172708867,12,2,7,11,13,8,0,1
1481268172723386,4,4,-1,5,12,7,1,5
1481268172723386,-8,-2,-3,-3,-10,-6,-9,-3
1481268172729380,9,5,2,4,2,9,7,1
1481268172729380,-1,2,0,-2,7,4,3,4
1481268172746380,-7,-13,-10,-14,-16,-11,-7,-7
1481268172746380,-3,-5,-7,-9,-5,-3,-4,2
1481268172747376,3,-1,-1,1,0,4,1,5
1481268172747376,-4,-4,0,-2,-4,-5,-1,-3
1481268172759469,-1,-1,-6,0,-1,1,-4,-4
1481268172759469,7,5,2,3,5,4,3,7
1481268172768438,3,3,5,3,6,5,4,-1
1481268172768438,-3,-1,-4,-4,-6,-3,0,-3
1481268172782380,1,3,6,3,-3,0,-2,4
1481268172782380,1,-1,-1,3,6,-1,1,1
1481268172789381,-4,-5,-5,-7,-1,-5,-3,-7
1481268172789381,-6,-7,-3,-3,-9,0,-3,2
1481268172805953,1,0,2,-3,3,0,4,1
1481268172805953,-5,-2,0,0,-2,-1,2,-5
1481268172812393,-4,-3,0,1,-1,-6,-7,-1
1481268172812393,1,1,-1,4,8,-5,2,0
1481268172819891,4,6,0,3,1,6,5,7
1481268172819891,-3,1,-2,-4,5,-5,-1,-3
1481268172828467,-1,-2,1,-1,-5,0,-3,0
1481268172828467,0,3,5,4,5,7,4,2
1481268172842403,-5,-6,-2,-2,-7,-4,-3,-8
1481268172842403,2,-2,-1,-1,1,-2,2,5
1481268172849401,-3,-3,1,-1,-2,1,5,0
1481268172849401,-1,-5,-5,-4,-4,-4,-2,-4
1481268172865401,-6,-6,-8,-6,-4,-5,0,-9
1481268172865401,-3,-4,2,1,-1,4,3,3
1481268172879403,-4,-6,-10,-5,-2,-3,-5,-3
1481268172879403,-3,-1,-2,-1,-3,-8,-6,-9
1481268172896404,-1,5,6,8,5,4,3,1
1481268172896404,0,3,7,1,8,3,3,0
1481268172897406,-2,-1,2,0,0,1,3,2
1481268172897406,2,5,12,7,3,4,0,3
1481268172902404,6,0,4,1,-5,5,-1,1
1481268172902404,-6,-4,-13,-9,-13,-7,-2,-6
1481268172909911,-4,0,-4,-6,-8,-4,-3,-5
1481268172909911,5,1,3,0,8,1,0,4
1481268172925418,-7,-5,-7,-13,-8,-2,-1,-3
1481268172925418,-5,-8,-1,-1,-8,-5,-2,-3
1481268172932419,7,11,7,10,10,5,4,5
1481268172932419,5,6,1,7,-1,3,7,3
1481268172949453,-1,1,-6,2,2,-8,-7,-4
1481268172949453,6,2,5,12,8,9,3,5
1481268172950419,-7,1,3,3,4,1,0,2
1481268172950419,-9,-9,-11,-11,-10,-9,-1,-7
1481268172978421,-8,-3,-1,-3,-6,-2,-2,2
1481268172978421,4,6,4,4,0,3,3,4
1481268172980422,-9,-8,-6,-14,-8,-4,-4,-4
1481268172980422,-5,-2,-5,-6,-1,-4,-2,-8
1481268172985422,7,6,8,8,10,6,3,4
1481268172985422,8,2,1,1,4,2,3,-1
1481268172992422,-2,-4,-6,-5,-4,-4,-5,-3
1481268172992422,3,7,9,7,5,8,1,3
1481268173008992,-1,2,0,8,10,6,1,2
1481268173008992,-10,-10,-7,-8,-7,-9,-8,-6
1481268173010431,-2,0,-5,-2,-1,-3,-1,0
1481268173010431,3,4,4,6,3,4,-1,4
1481268173022931,-2,-7,-5,-6,-1,-2,-2,-4
1481268173022931,-8,-5,-8,-9,-6,-8,-4,-5
1481268173029933,5,4,4,6,9,4,3,5
1481268173029933,-2,0,3,-2,-3,-4,4,1
1481268173045935,-4,-4,-1,-4,-11,-1,-2,-7
1481268173045935,6,5,6,4,3,3,1,-2
1481268173053936,4,3,6,5,4,5,4,4
1481268173053936,-8,-5,-6,-1,0,-1,2,-2
1481268173068972,-1,1,-1,2,2,-1,1,-1
1481268173068972,3,7,5,-1,11,6,2,3
1481268173070438,-4,1,-2,0,-2,-6,-5,-7
1481268173070438,-7,-2,-3,-9,-5,-6,-6,-13
1481268173082939,0,-5,1,-3,2,2,4,4
1481268173082939,-5,-2,-5,-5,-9,-2,-2,-1
1481268173089940,-5,-4,-4,-9,-7,2,0,-3
1481268173089940,0,-2,0,-5,0,-2,-2,5
1481268173105442,2,6,5,7,3,-3,2,3
1481268173105442,-7,-1,-2,2,3,-2,-1,-2
1481268173112443,-2,3,3,6,7,3,-1,0
1481268173112443,6,5,1,1,-1,3,-1,2
1481268173128993,-5,2,0,1,-4,-2,0,1
1481268173128993,-1,-2,-2,1,5,-4,-3,-8
1481268173130446,5,-2,0,-8,-4,-4,-3,-2
1481268173130446,-5,-3,-1,-9,-10,-2,-7,-3
1481268173143447,-6,-8,-5,-8,-3,-4,-9,-2
1481268173143447,-1,3,0,-2,0,1,2,2
1481268173151448,7,3,4,0,0,0,-1,-4
1481268173151448,-1,-7,-2,9,10,1,3,-1
1481268173166014,4,5,5,11,3,5,1,4
1481268173166014,1,4,10,5,5,2,1,3
1481268173172451,-2,-1,0,-3,-9,-1,-1,-2
1481268173172451,2,-3,-3,2,-3,-2,-6,-2
1481268173188453,3,-2,-4,-8,-2,-2,-1,-1
1481268173188453,-5,-9,-8,-10,-13,-5,-3,-4
1481268173190454,-4,-9,-2,0,-5,-1,-2,-3
1481268173190454,2,2,1,4,3,6,8,3
1481268173211494,0,2,3,-6,-2,0,-1,0
1481268173211494,-3,-9,0,-1,-1,-1,-4,-2
1481268173212956,-1,4,2,7,9,2,1,2
1481268173212956,0,0,-3,-2,-6,3,-2,6
1481268173225976,-2,-4,-2,1,-3,-3,-3,-5
1481268173225976,3,2,-2,0,1,-1,2,-2
1481268173232959,2,1,1,-1,5,6,3,3
1481268173232959,-1,2,3,-2,-1,-3,-2,-5
1481268173249025,-3,-2,-6,-2,-6,-6,-2,-6
1481268173249025,6,4,5,7,4,4,3,1
1481268173250462,-6,-3,-3,-6,-9,-11,-2,1
1481268173250462,-5,-2,-11,-11,-9,-6,-6,-6
1481268173262962,1,3,2,3,4,-2,-6,-6
1481268173262962,4,2,3,3,3,4,0,6
1481268173277464,-5,-2,-8,-7,-12,-2,-4,-3
1481268173277464,3,3,2,4,-2,-3,0,1
1481268173285966,5,5,10,9,7,7,4,3
1481268173285966,3,2,1,9,4,1,-1,1
1481268173292466,-8,-4,-7,-5,-6,-5,-2,-5
1481268173292466,2,2,-1,5,6,4,4,1
1481268173309012,-1,-1,-3,-5,-1,-4,5,0
1481268173309012,-6,-5,-7,-11,-14,-10,-7,-11
1481268173310468,0,0,-5,-8,-9,-3,-4,-3
1481268173310468,7,5,3,10,5,2,2,7
1481268173322970,-4,-2,-5,-5,-9,0,-3,0
1481268173322970,-3,1,-3,-4,-2,0,-5,-1
1481268173329971,7,6,4,13,13,10,1,8
1481268173329971,2,3,7,7,1,0,0,1
1481268173345472,-2,-2,-7,-8,-6,-13,-9,-5
1481268173345472,1,3,4,3,3,2,1,3
1481268173352473,2,-4,1,0,-1,6,3,0
1481268173352473,-7,-9,-7,-16,-8,-9,-8,-11
1481268173368476,-3,-7,-7,-10,-8,-6,-6,-6
1481268173368476,4,0,3,2,2,5,8,6
1481268173370477,-7,-8,-5,-4,1,-3,-3,-2
1481268173370477,-3,-3,0,2,-3,3,-4,1
1481268173382479,7,7,5,5,7,10,6,6
1481268173382479,2,3,-1,5,4,3,-1,-1
1481268173391478,-3,-4,-4,-4,-4,-7,-1,-2
1481268173391478,8,4,1,1,0,6,7,3
1481268173405994,1,-3,-5,-3,-4,0,3,-1
1481268173405994,-7,-6,-5,-6,-9,-9,-6,-8
1481268173412482,-1,2,-1,-5,-1,-2,-2,1
1481268173412482,-2,-2,6,3,6,4,0,1
1481268173428997,-1,-4,-2,-6,-4,-3,0,-2
1481268173428997,0,-6,2,-2,-2,0,0,0
1481268173430485,6,3,2,3,5,6,4,-2
1481268173430485,-3,-4,-3,-3,2,0,-1,3
1481268173442485,-6,-2,-2,1,-2,4,-3,1
1481268173442485,3,5,0,4,3,6,0,3
1481268173451486,-4,3,2,9,8,0,3,3
1481268173451486,-3,3,-2,-3,-5,-4,-7,-5
1481268173465488,1,1,2,4,7,0,1,-1
1481268173465488,0,-4,2,-4,0,4,0,1
1481268173472489,-1,-8,-5,-9,0,-11,-8,-7
1481268173472489,-3,-1,1,-2,-2,-4,-5,-3
1481268173489019,0,3,4,-5,0,-2,1,4
1481268173489019,-5,0,-2,-4,-10,-2,-1,-1
1481268173490490,-4,-3,4,-3,-5,-4,-9,0
1481268173490490,5,1,6,9,9,3,4,5
1481268173510994,4,4,3,6,3,4,5,-1
1481268173510994,-5,-3,-2,0,4,-1,-8,-5
1481268173512994,4,1,2,4,5,3,1,1
1481268173512994,-4,1,2,1,-4,-3,3,3
1481268173525996,-9,-10,-10,-12,-9,-10,-8,-9
1481268173525996,-7,-5,-6,-4,-6,-9,-7,-7
1481268173532497,5,0,6,3,-1,1,8,4
1481268173532497,-2,-5,-7,-13,-10,-5,-5,-11
1481268173548498,-2,-5,0,-2,-2,-5,-2,-5
1481268173548498,9,7,6,6,9,4,2,4
1481268173550500,3,5,4,4,6,6,2,1
1481268173550500,-3,-4,-5,-3,-4,1,-3,-3
1481268173562501,1,4,11,14,9,4,6,4
1481268173562501,-2,-1,3,-4,5,-1,1,6
1481268173571501,-7,-5,-7,-8,-16,-8,-5,-6
1481268173571501,-5,-2,-1,-12,-9,-8,-8,-9
1481268173585511,-3,-1,1,-4,0,2,-5,2
1481268173585511,-5,-6,-13,-9,-7,-3,0,-4
1481268173592513,-8,-3,-9,-5,-5,-5,-11,-4
1481268173592513,7,4,9,4,5,1,5,6
1481268173608514,3,3,6,0,0,4,2,-1
1481268173608514,0,3,-2,-4,-1,-6,-2,-6
1481268173609513,1,-2,4,7,0,6,2,-2
1481268173609513,3,6,2,15,13,5,8,2
1481268173622515,-4,-5,-7,-13,-6,-8,-8,-6
1481268173622515,-2,-3,1,-2,-2,-7,-1,-4
1481268173631550,4,4,1,5,6,4,4,-2
1481268173631550,-2,-4,-10,-6,1,-8,-3,-5
1481268173645516,-8,-4,-7,-4,-10,-12,-10,-6
1481268173645516,5,6,8,6,6,9,2,1
1481268173652515,-1,0,-2,-1,-2,-8,-3,-1
1481268173652515,-4,-6,-5,-2,-5,1,1,-9
1481268173668530,9,2,4,3,6,5,7,4
1481268173668530,0,3,9,8,6,6,8,2
1481268173670529,-1,-3,-5,-1,-4,-3,-8,-3
1481268173670529,0,-2,0,4,6,7,6,3
1481268173682553,7,-3,-1,5,3,6,3,4
1481268173682553,-6,2,-4,-1,-2,-5,-3,0
1481268173691554,-8,-5,-4,-9,-5,-10,-4,-5
1481268173691554,1,3,2,-3,0,-2,1,7
1481268173705558,-6,-3,-5,-6,-7,2,3,-4
1481268173705558,0,-10,-7,-10,-11,-4,-6,-5
1481268173712554,5,3,2,-1,0,10,2,-1
1481268173712554,3,5,7,0,-1,4,1,1
1481268173728559,-1,-1,0,11,8,-2,0,-1
1481268173728559,2,2,1,10,7,4,-1,2
1481268173734558,1,7,6,3,-3,-2,4,5
1481268173734558,-2,-5,0,-2,4,2,1,-3
1481268173742557,-4,-3,-2,0,-1,-3,1,-5
1481268173742557,-1,-5,-6,-7,0,-3,5,0
1481268173751592,1,-4,-7,-12,-8,-5,-7,0
1481268173751592,-4,-8,-3,-8,-6,-7,-8,-9
1481268173765565,0,2,4,-2,-9,-4,0,3
1481268173765565,2,7,-1,1,1,0,2,4
1481268173772566,-1,1,3,8,11,3,1,-4
1481268173772566,1,8,5,7,4,0,4,1
1481268173787576,1,5,5,-3,4,4,3,-1
1481268173787576,1,6,2,3,-1,0,-1,-4
1481268173811647,-5,-5,-4,-1,-4,1,3,-4
1481268173811647,5,0,-4,-2,-6,5,0,2
1481268173812578,-6,-4,-1,-4,-5,-2,-7,-9
1481268173812578,-4,-3,-3,-2,-3,-5,-4,-9
1481268173814593,1,2,1,1,2,1,0,4
1481268173814593,0,1,0,-3,-1,0,0,0
1481268173825648,0,-1,-4,-1,-6,-2,2,-4
1481268173825648,4,-1,3,3,-1,3,3,4
1481268173832631,0,-2,11,0,2,1,6,1
1481268173832631,-5,-1,-2,-6,-5,-8,-6,-2
1481268173847580,-1,1,-4,-1,4,4,0,2
1481268173847580,3,2,4,4,4,2,3,2
1481268173854650,-1,2,-1,-8,-6,-4,-2,-6
1481268173854650,-5,-5,-8,-1,-2,-4,-6,-6
1481268173871115,1,4,4,-1,2,2,-3,0
1481268173871115,2,-1,-4,-7,-10,-2,-4,-2
1481268173873148,-5,-4,-6,-8,-6,-8,-6,-5
1481268173873148,-2,-4,-4,-2,2,-4,-1,-2
1481268173885644,7,7,2,2,1,5,1,9
1481268173885644,0,-2,2,-6,-8,-7,-6,-5
1481268173892637,-4,-1,1,8,3,-2,-2,2
1481268173892637,3,9,5,7,1,6,5,6
1481268173907575,2,-5,-1,4,4,3,-1,5
1481268173907575,-6,-3,-9,-8,-8,-4,-7,-5
1481268173914594,1,3,-1,4,8,6,6,3
1481268173914594,1,-2,-2,-4,-3,-3,0,-5
1481268173930576,-9,-7,-6,-13,-8,-8,-4,-8
1481268173930576,1,-7,-6,-10,-4,1,-4,-5
1481268173932575,7,1,5,9,2,5,3,6
1481268173932575,-4,-7,-4,-5,-5,-2,-3,0
1481268173945579,-1,0,-1,2,0,-2,-3,-5
1481268173945579,0,8,11,8,11,4,7,5
1481268173952625,6,6,5,9,7,9,2,3
1481268173952625,-9,-4,-3,-7,-7,-5,-5,-5
1481268173968088,4,2,0,2,-2,2,2,1
1481268173968088,-6,-4,0,0,-6,-1,-2,0
1481268173975123,-5,-7,-11,-17,-15,-12,-7,-10
1481268173975123,-4,-6,0,-13,-15,-9,-8,-7
1481268173991298,4,7,5,5,9,8,-1,2
1481268173991298,-6,-1,-3,0,-2,-2,-2,-3
1481268173997233,1,-4,5,2,-6,2,-2,-3
1481268173997233,5,5,3,11,14,8,5,4
1481268174005306,-2,4,5,12,6,4,6,6
1481268174005306,1,-4,-5,0,-1,-3,-6,3
1481268174012238,2,0,0,0,-2,-2,-1,3
1481268174012238,4,-2,2,1,3,5,3,-2
1481268174028306,-6,-4,-11,-5,-5,-10,-2,-1
1481268174028306,0,-3,-2,-4,-2,-4,0,0
1481268174034237,2,6,5,2,2,5,-1,1
1481268174034237,0,0,-3,-3,-1,-1,-1,-4
1481268174051299,1,-1,-1,-2,-3,-2,-4,-3
1481268174051299,-2,2,3,-2,-3,-2,0,3
1481268174052236,-1,6,2,4,-1,-4,3,-2
1481268174052236,-6,1,-2,4,1,-4,-1,0
1481268174073796,2,-1,5,7,9,11,-1,1
1481268174073796,1,1,1,3,0,2,1,1
1481268174075305,-8,-10,-9,0,6,-1,-1,-3
1481268174075305,-1,0,0,5,4,0,1,8
1481268174087623,5,2,-1,-4,-1,-2,1,2
1481268174087623,-1,-7,-3,-5,-7,-5,-4,-5
1481268174094701,-2,-5,-3,-6,-6,-4,0,-1
1481268174094701,3,0,4,-4,-7,4,1,-2
1481268174111628,-8,-8,-4,-12,-8,-6,-5,-5
1481268174111628,-2,-1,-7,3,0,4,-1,-5
1481268174112624,3,8,7,4,12,6,4,6
1481268174112624,5,0,2,3,3,-1,3,5
1481268174125631,-3,-1,0,3,0,-5,-4,-1
1481268174125631,-1,0,1,14,9,8,4,8
1481268174132690,0,5,0,0,2,-2,-2,-1
1481268174132690,-6,-2,-12,-11,-13,-9,-6,-9
1481268174147625,-2,-5,-2,-5,-4,-7,-4,-2
1481268174147625,3,4,2,1,6,3,2,3
1481268174154629,-2,-2,-10,-9,-9,-3,2,-3
1481268174154629,-5,-5,-2,-3,-3,-3,-6,-10
1481268174171140,7,3,10,14,11,5,10,8
1481268174171140,7,5,2,2,3,3,2,1
1481268174172636,-3,-1,-3,-2,-2,-5,-4,-1
1481268174172636,7,4,8,16,9,6,9,3
1481268174185303,0,4,3,6,5,6,3,1
1481268174185303,-13,-11,-6,-12,-9,-10,-7,-8
1481268174192307,-5,-7,-6,-6,-2,-5,-7,-5
1481268174192307,5,8,7,1,4,4,4,8
1481268174208365,0,-4,-7,-13,-10,-4,-4,-9
1481268174208365,-5,-4,-4,-6,-8,-7,-3,-6
1481268174214301,7,7,9,8,8,10,8,4
1481268174214301,-2,3,-1,3,1,2,5,4
1481268174231309,-4,-6,-4,-10,-8,-7,-2,-4
1481268174231309,3,7,8,6,9,9,6,1
1481268174232338,8,-1,9,7,2,0,7,7
1481268174232338,-8,-5,-6,-5,-9,-8,-7,-10
1481268174245304,-3,0,-3,3,-2,0,-3,-4
1481268174245304,-2,3,5,-1,3,-1,1,4
1481268174252371,-6,-4,-1,-3,-5,-5,-3,-6
1481268174252371,-6,-11,-6,-8,-3,-5,-6,-6
1481268174268818,4,2,5,4,7,4,4,7
1481268174268818,0,1,-1,-3,-1,-2,1,-3
1481268174281808,-6,-6,-2,-8,-7,-4,-7,-6
1481268174281808,2,2,2,-3,0,1,-1,0
1481268174290804,1,0,4,7,7,4,11,3
1481268174290804,-4,-4,-2,-4,-5,-5,-6,-7
1481268174292804,-2,1,-2,5,1,5,-3,1
1481268174292804,5,1,1,0,1,1,8,6
1481268174305874,-6,-3,1,-7,-3,-3,-2,-1
1481268174305874,-4,-9,-4,-7,-7,-5,-2,-6
1481268174312805,8,0,1,-1,2,8,6,6
1481268174312805,-5,1,1,-11,-17,-8,-12,-5
1481268174337807,-3,-1,-5,-8,-8,-6,-2,-7
1481268174337807,4,-1,3,2,2,4,4,1
1481268174339807,0,1,0,0,3,0,-2,5
1481268174339807,-1,-2,-1,9,7,3,2,-1
1481268174350812,7,2,0,6,5,3,-5,1
1481268174350812,8,3,2,3,1,3,2,6
1481268174350812,-5,-6,-2,-5,-7,-4,1,-1
1481268174350812,-3,-7,-2,1,-4,-4,-1,-6
1481268174373356,1,-2,-3,-5,-6,-7,-3,-1
1481268174373356,-2,-6,-3,-8,-5,-6,-5,-4
1481268174373822,-5,-4,-5,-3,-6,-7,-8,-9
1481268174373822,-1,1,-1,0,-6,-3,3,2
1481268174388884,1,2,2,-6,-8,2,0,1
1481268174388884,0,3,-1,10,2,2,-3,-6
1481268174394894,8,2,4,8,3,6,0,1
1481268174394894,2,7,7,1,6,4,2,6
1481268174410948,-4,-2,-5,2,0,-3,-4,-2
1481268174410948,-1,-1,-2,1,0,-4,-2,-3
1481268174410948,-2,-2,0,-3,-3,0,3,2
1481268174410948,-4,-5,-7,0,2,-1,-1,0
1481268174441891,-6,-9,-6,-2,0,-5,1,-3
1481268174441891,-5,1,2,-1,5,5,3,5
1481268174442888,1,-1,5,2,-2,1,0,2
1481268174442888,-1,-2,-5,-8,0,2,-3,-3
1481268174448887,0,2,3,3,1,0,-1,-3
1481268174448887,8,0,4,2,0,1,2,4
1481268174454890,-6,-4,-5,-7,-9,-10,-6,-6
1481268174454890,0,-2,-2,3,-2,1,-4,0
1481268174470408,2,8,5,2,-2,3,3,7
1481268174470408,-3,5,-1,-4,0,-2,-2,2
1481268174471410,-6,-2,-6,-1,3,-5,-5,-6
1481268174471410,2,0,5,6,7,3,3,2
1481268174493004,0,0,-4,-5,-7,0,0,1
1481268174493004,-4,-11,-8,-11,-17,-14,-4,-2
1481268174493920,4,-1,0,-4,-6,-2,2,-4
1481268174493920,4,1,4,7,7,5,4,4
1481268174508916,-2,-5,-5,-8,1,-5,-1,-6
1481268174508916,-2,-2,0,7,-1,4,-3,-4
1481268174522990,8,6,-3,10,12,5,7,10
1481268174522990,-1,-2,0,5,3,2,3,4
1481268174530951,-5,-6,-8,-8,-8,-3,-10,-5
1481268174530951,10,1,7,5,5,9,2,4
1481268174530951,3,-2,-1,-3,-4,-1,2,0
1481268174530951,-4,-2,-12,-16,-12,-10,-12,-7
1481268174552921,-6,-2,-4,-8,-7,-9,-6,-1
1481268174552921,4,3,-1,4,11,9,4,6
1481268174553921,-8,-7,-3,-8,-7,-3,-7,-5
1481268174553921,-1,-3,4,-1,-2,0,-1,-8
1481268174568932,7,6,9,10,12,4,7,6
1481268174568932,2,2,4,8,7,4,5,3
1481268174582957,-9,-8,-5,-9,-4,-4,-6,-7
1481268174582957,3,2,-5,3,3,-1,3,0
1481268174589947,-4,-1,1,-3,-4,-1,7,3
1481268174589947,-4,-8,-7,-10,-6,-8,-10,-14
1481268174590945,-2,-4,-6,-10,-4,-2,-8,-5
1481268174590945,6,0,6,2,5,-1,-1,2
1481268174620992,-2,-5,-6,-1,-3,-2,1,-2
1481268174620992,-4,-3,-5,-1,-5,-4,1,-3
1481268174620992,6,5,7,6,7,3,3,5
1481268174620992,-2,-1,4,2,5,6,3,5
1481268174636945,-3,-4,-4,0,1,1,-4,-5
1481268174636945,2,-1,2,-3,-2,1,2,5
1481268174642945,0,5,0,0,-8,-3,2,0
1481268174642945,-4,0,-6,-5,-12,-7,-8,-5
1481268174650948,0,-4,0,-5,-8,-5,-4,-8
1481268174650948,-1,2,1,-2,-1,2,0,6
1481268174650948,-6,-6,1,-3,3,-2,1,-4
1481268174650948,-2,-3,-4,-1,-1,-1,-9,0
1481268174672964,4,3,4,1,-1,6,4,1
1481268174672964,0,-1,-4,-5,-3,-2,0,-4
1481268174673963,-1,1,0,1,-1,-3,-1,-7
1481268174673963,-1,-1,2,5,7,11,10,-3
1481268174688581,1,1,2,-1,4,-2,-3,5
1481268174688581,-12,0,-5,1,1,-4,-1,-9
1481268174694661,0,4,0,7,4,3,1,8
1481268174694661,5,6,5,-5,-6,-3,3,1
1481268174710680,-5,-5,-5,-6,-2,0,-2,-6
1481268174710680,-2,-3,-2,-8,5,-5,-5,-8
1481268174717646,2,3,0,-6,-8,1,-1,0
1481268174717646,1,0,-9,-9,-8,-6,-5,-2
1481268174733651,-2,-3,0,-2,-6,-9,-4,-3
1481268174733651,9,3,10,9,9,9,4,9
1481268174739664,4,1,3,9,12,7,7,5
1481268174739664,-7,0,-3,5,5,-3,-2,-5
1481268174748588,2,2,3,14,16,9,6,5
1481268174748588,0,-3,-1,-2,-3,-2,2,1
1481268174754588,-12,-10,-9,-14,-7,-10,-11,-11
1481268174754588,-5,-1,-3,-10,-3,-5,-7,-3
1481268174770157,0,3,4,7,2,5,3,2
1481268174770157,-8,-1,-5,-11,-14,-7,0,-7
1481268174777657,-6,-8,-9,-1,-3,-4,-5,-5
1481268174777657,10,3,3,12,6,3,7,8
1481268174792840,-1,-5,0,2,3,6,3,4
1481268174792840,-5,-4,-4,1,-2,-2,-4,-8
1481268174793840,6,6,6,14,11,7,4,4
1481268174793840,1,-1,-2,2,7,3,11,8
1481268174808842,-3,-4,-10,-10,-15,-10,-11,-11
1481268174808842,-4,-4,-4,-3,-5,-6,-1,-4
1481268174822843,2,4,4,2,3,8,8,7
1481268174822843,-6,-9,-5,-8,-12,-10,0,-9
1481268174829839,-2,-5,-11,-6,-11,-6,-13,-6
1481268174829839,5,6,7,4,8,5,7,9
1481268174836859,3,3,-6,-2,1,-2,3,1
1481268174836859,-5,-7,-3,-5,-2,-9,-6,-5
1481268174852860,4,2,4,3,3,7,0,2
1481268174852860,3,3,3,8,3,6,6,7
1481268174853840,-8,-9,-10,-10,-13,-11,-10,-7
1481268174853840,-5,-2,0,4,5,7,-1,-2
1481268174868854,1,0,0,0,7,-1,3,2
1481268174868854,-1,-5,-7,-7,-5,-7,-1,-4
1481268174874857,-6,-9,-4,-7,-7,-6,-6,-11
1481268174874857,5,3,6,1,-1,5,4,0
1481268174890215,-5,2,-3,-6,-11,-5,2,-1
1481268174890215,-8,-6,-7,-8,-2,-1,-9,-2
1481268174897214,-1,6,3,-5,-3,-5,1,-2
1481268174897214,5,0,3,0,3,7,1,5
1481268174920295,-2,-6,-6,1,1,0,-3,-1
1481268174920295,3,2,2,11,6,3,-1,-3
1481268174921219,5,6,0,3,5,7,7,4
1481268174921219,-3,2,-3,-5,-6,-10,-1,2
1481268174929235,-9,-9,-5,-8,-6,-11,-9,-5
1481268174929235,5,3,3,-6,-11,-4,1,4
1481268174935264,-4,-4,-4,-5,-6,-4,-5,-3
1481268174935264,-7,-1,-6,-6,-7,-3,-5,-8
1481268174950275,0,-2,-2,-5,-2,-4,0,0
1481268174950275,0,0,2,4,6,7,2,1
1481268174957323,-4,-3,1,6,9,1,-1,0
1481268174957323,1,1,-2,5,13,8,2,2
1481268174973320,7,5,2,3,9,4,12,3
1481268174973320,-1,-5,-2,-1,-3,-1,5,-4
1481268174973799,-2,-5,-1,-8,-1,-8,-4,-2
1481268174973799,1,-3,1,-13,-8,-4,-2,-1
1481268174988267,-4,-2,-3,-8,-2,-3,-6,-3
1481268174988267,-5,-3,-3,-4,-10,-7,-10,-8
1481268174995282,3,-1,3,-1,-5,2,-2,-4
1481268174995282,3,2,-1,-4,7,-4,0,2
1481268175010319,-2,1,-1,0,4,-3,3,-2
1481268175010319,2,2,-4,7,16,-3,3,4
1481268175017342,11,6,5,6,1,7,3,3
1481268175017342,-5,-7,-4,3,5,0,-1,-1
1481268175033332,-4,2,-4,1,1,0,-2,-4
1481268175033332,4,4,-2,-4,-4,-3,2,4
1481268175033332,-7,-5,-5,-8,-5,-6,-1,3
1481268175033332,-4,2,-5,-7,-8,-8,-7,-9
1481268175048268,2,6,6,3,6,3,-5,-1
1481268175048268,4,-3,-3,-6,2,-6,2,-1
1481268175054352,-10,-5,-4,0,0,-8,-2,-1
1481268175054352,2,-2,6,-1,0,-3,1,-2
1481268175069797,4,1,4,-2,1,3,1,0
1481268175069797,-7,-2,-5,-7,-11,-6,-10,-11
1481268175077283,0,-2,6,7,8,4,1,0
1481268175077283,6,5,3,6,8,2,12,9
1481268175093175,-3,-5,-2,-1,1,7,1,3
1481268175093175,-10,-1,-2,-7,-2,-7,-5,-6
1481268175094143,1,0,1,6,6,0,6,5
1481268175094143,-1,-3,0,-4,-5,-1,3,-2
1481268175109079,-6,-9,-7,-8,-15,-13,-5,-10
1481268175109079,-2,-2,-6,-5,-6,-3,-6,-5
1481268175115142,5,6,2,6,5,3,6,1
1481268175115142,-7,-11,-3,-6,-8,-3,-4,-5
1481268175131079,5,0,3,7,5,-3,-3,-3
1481268175131079,3,2,7,11,15,8,6,8
1481268175137084,7,1,0,4,2,6,8,5
1481268175137084,-11,-7,-4,-6,-11,-8,-9,-11
1481268175153086,2,3,-1,3,3,4,-1,0
1481268175153086,3,0,-3,-1,-1,-2,1,0
1481268175154119,-7,-7,-11,-14,-14,-15,-9,-18
1481268175154119,-5,-5,-7,-14,-16,-4,-9,-11
1481268175169093,2,0,2,5,8,6,8,5
1481268175169093,0,-1,-1,-2,-5,1,-3,-1
1481268175175156,-4,-5,-2,0,-1,-2,-5,-6
1481268175175156,5,3,1,7,13,6,-2,8
1481268175190223,3,2,4,8,11,11,9,2
1481268175190223,-8,-5,-3,-9,-11,-4,-5,-6
1481268175197193,4,-5,-2,-7,-1,0,-1,-2
1481268175197193,4,0,2,3,-4,-1,4,-2
1481268175213194,-6,-8,-6,-13,-11,-13,-7,-10
1481268175213194,-3,-6,-2,-10,-7,-12,-8,-7
1481268175214256,4,4,2,4,4,5,-2,8
1481268175214256,0,-2,2,3,-1,1,1,-2
1481268175228259,0,1,1,-6,-9,-5,-5,-5
1481268175228259,9,2,5,4,6,9,9,7
1481268175235258,-4,3,3,2,5,7,4,2
1481268175235258,-7,-1,1,0,6,-1,-9,-4
1481268175250217,4,4,2,0,0,0,0,-1
1481268175250217,3,1,0,2,-1,-2,8,6
1481268175257223,-6,-3,-6,-3,-9,-5,-8,-9
1481268175257223,0,-2,3,-1,2,2,-2,-5
1481268175273203,-1,-1,0,-2,5,1,-1,5
1481268175273203,-5,-1,-2,-5,-4,-3,-5,-6
1481268175274203,1,-3,2,-4,-2,-4,-5,-7
1481268175274203,4,5,-1,-2,-8,6,4,8
1481268175288778,1,1,-1,-5,-9,2,-1,2
1481268175288778,-3,0,-2,-1,5,1,-9,-4
1481268175294846,4,2,3,3,9,2,5,1
1481268175294846,2,2,-1,1,5,3,5,4
1481268175309785,-9,3,0,1,-5,-3,-2,-2
1481268175309785,0,2,0,8,8,9,1,2
1481268175316780,-1,3,5,-5,-4,0,-2,6
1481268175316780,-5,-4,-4,-11,-12,-13,-7,-11
1481268175332779,-4,-3,-7,-2,-10,-9,-9,-5
1481268175332779,0,3,-1,-5,-3,-2,6,3
1481268175333781,-2,-4,-7,-9,-11,-8,-8,0
1481268175333781,1,-2,-3,-2,-2,-3,-5,-5
1481268175348781,2,6,1,11,13,8,9,7
1481268175348781,-3,3,2,2,7,-3,7,5
1481268175354782,-5,-2,-1,-1,-2,-2,1,-2
1481268175354782,-2,5,1,13,14,11,6,5
1481268175369777,8,4,-3,-2,-2,6,0,4
1481268175369777,-7,-10,-7,-9,-14,-8,-12,-14
1481268175377278,-5,-3,-8,-3,-1,-6,-10,-5
1481268175377278,-2,2,7,-3,0,0,3,3
1481268175392802,-5,-7,-4,-12,-10,-13,-9,-6
1481268175392802,-11,-3,-3,-6,-4,-7,-12,-8
1481268175393802,7,6,7,15,14,13,7,7
1481268175393802,0,3,0,3,9,8,2,7
1481268175408813,-10,-7,-6,-3,0,-5,-6,-3
1481268175408813,12,7,6,9,8,9,-2,1
1481268175414826,0,1,2,4,3,7,8,7
1481268175414826,-6,-10,-8,-12,-14,-10,-10,-8
1481268175429849,-5,-4,-5,-4,-7,-9,0,-6
1481268175429849,4,1,1,1,-1,2,6,8
1481268175436908,-2,-3,-5,-16,-10,-7,-5,-7
1481268175436908,-4,-3,-6,-7,-12,-10,-10,-13
1481268175454806,6,1,9,3,5,9,3,7
1481268175454806,2,-5,-2,-3,-3,-1,0,4
1481268175454806,-7,-7,-13,-13,-15,-8,-9,-13
1481268175454806,3,1,5,5,3,1,2,4
1481268175475826,5,3,8,3,13,10,6,5
1481268175475826,-4,-7,-6,-8,-5,-5,-7,-5
1481268175476324,-4,-7,2,2,0,-1,3,0
1481268175476324,6,4,2,2,5,8,2,4
1481268175489831,-6,-5,-8,-4,-4,2,-4,-2
1481268175489831,-6,-7,-4,-5,-12,-12,-6,-11
1481268175496833,1,8,3,-2,-4,4,2,1
1481268175496833,-1,-4,-4,-9,-12,-9,-4,-3
1481268175514833,-7,-6,-1,-9,-3,-6,-8,-6
1481268175514833,0,-2,0,0,-1,-1,-3,0
1481268175514833,7,0,-1,4,-1,4,2,11
1481268175514833,-7,-2,-3,7,-5,-9,-5,-2
1481268175535898,6,3,1,10,0,-3,1,-3
1481268175535898,4,8,1,9,8,11,4,7
1481268175535898,2,-1,4,5,7,-2,-4,-7
1481268175535898,-7,0,-5,-2,-1,-9,-12,-12
1481268175550837,1,6,3,-3,-11,-7,-1,2
1481268175550837,-3,1,-4,-12,-12,-1,-3,-8
1481268175557837,-6,-3,-6,-6,-8,-11,-9,-9
1481268175557837,3,0,2,-3,-2,-2,7,1
1481268175573382,1,-2,-1,0,8,8,8,0
1481268175573382,-2,-1,-2,7,9,3,2,-1
1481268175573846,-3,7,4,10,9,7,1,4
1481268175573846,6,-2,5,3,9,10,4,8
1481268175595510,-2,0,-2,1,3,-2,2,0
1481268175595510,-1,-4,1,1,0,-6,-2,-10
1481268175596543,4,5,1,-6,-4,-2,-3,-1
1481268175596543,-2,-5,-10,-9,-11,-13,0,-3
1481268175611503,-3,-6,-2,-5,-4,-9,-10,-9
1481268175611503,-1,0,-2,-1,-2,5,-2,0
1481268175617583,7,5,3,-1,-1,0,6,3
1481268175617583,-3,1,-1,7,4,2,-1,1
1481268175632507,4,4,7,5,6,6,0,1
1481268175632507,8,4,3,-2,3,2,5,6
1481268175633508,-5,-6,2,-1,-3,-6,-1,-1
1481268175633508,-4,-1,1,3,3,2,-10,-2
1481268175655509,3,-2,0,-3,0,1,0,4
1481268175655509,-1,-4,2,-6,-2,-4,-1,2
1481268175655509,-9,-4,-3,2,-5,-6,-6,-6
1481268175655509,0,1,1,5,3,12,4,0
1481268175671517,-6,0,-6,-9,-1,1,0,0
1481268175671517,-5,-8,-1,-6,-8,-10,-6,-6
1481268175677521,3,-1,-1,-4,-6,1,0,-3
1481268175677521,5,1,1,5,10,1,11,7
1481268175692028,-4,-2,-3,-8,-9,-6,-10,-6
1481268175692028,-3,-1,-2,5,9,6,-1,-4
1481268175700139,4,6,4,6,13,12,8,7
1481268175700139,-1,2,-1,6,7,10,3,1
1481268175715033,-6,-7,0,-7,-8,-6,-5,-7
1481268175715033,3,5,5,3,7,3,0,4
1481268175716034,0,-2,3,-5,-8,-3,4,-1
1481268175716034,-5,-7,-4,-18,-19,-18,-13,-14
1481268175730035,0,0,2,-6,-9,-8,-9,-8
1481268175730035,5,8,6,9,4,10,4,5
1481268175746063,-3,-5,-6,-11,-7,-2,-7,-7
1481268175746063,3,5,1,3,-6,-6,-2,-5
1481268175752031,10,6,6,14,12,20,12,8
1481268175752031,5,2,2,9,12,12,7,14
1481268175760115,-9,-2,-6,-5,-1,-9,-7,-4
1481268175760115,5,1,-2,1,5,6,0,2
1481268175775555,0,1,-2,-3,-4,-6,-1,-4
1481268175775555,-11,-6,-7,-13,-18,-12,-5,-12
1481268175776585,1,-8,-6,-11,-10,-18,-8,-9
1481268175776585,0,3,2,1,8,11,7,8
1481268175798064,-4,-3,-1,1,-1,-1,-2,-3
1481268175798064,2,5,-1,-4,-6,-2,-4,-6
1481268175799094,8,6,5,11,10,15,7,7
1481268175799094,3,2,0,6,11,8,7,6
1481268175812068,-5,-6,-4,-3,-7,-7,-5,-6
1481268175812068,-1,3,-3,0,-3,1,4,3
1481268175820127,4,7,0,0,7,6,1,-3
1481268175820127,-8,-10,-5,-10,-4,-14,-9,-8
1481268175843068,-8,-3,-4,-10,-11,-12,-7,-1
1481268175843068,3,-6,6,5,-4,4,5,7
1481268175844109,-10,-3,-6,2,-3,-6,-9,-5
1481268175844109,-1,0,2,-3,2,0,-5,1
1481268175851070,4,5,-2,4,10,9,7,6
1481268175851070,6,-4,-2,9,10,0,5,-2
1481268175857066,-3,-3,-3,2,0,-5,-4,-2
1481268175857066,3,3,3,6,2,6,1,3
1481268175872578,3,-1,1,6,7,6,2,1
1481268175872578,-9,-1,-4,-2,-5,-6,-8,-9
1481268175888089,-2,-5,0,5,2,0,5,1
1481268175888089,5,1,-1,-1,-1,1,3,1
1481268175896091,-11,-4,-8,-2,-8,-15,-6,-5
1481268175896091,-3,-7,-5,-1,-4,-4,-8,-6
1481268175896091,4,-6,0,-4,1,7,1,7
1481268175896091,-1,2,2,-7,-14,-7,-6,-6
1481268175911092,0,-1,-5,5,2,0,0,-4
1481268175911092,4,6,9,9,11,7,10,7
1481268175917087,3,6,1,5,10,4,2,2
1481268175917087,-8,-2,-4,12,2,2,-3,0
1481268175932111,2,0,5,13,15,8,9,5
1481268175932111,3,-2,-1,-6,-3,-1,2,7
1481268175940088,-7,-3,-5,-8,-10,-7,-14,-11
1481268175940088,-5,-3,-8,-10,-11,-7,-7,-8
1481268175956105,5,-1,2,-5,-4,0,4,2
1481268175956105,-9,-8,-6,-18,-20,-14,-12,-5
1481268175956105,-8,-8,-4,2,-5,-9,-2,-9
1481268175956105,6,3,9,9,13,11,15,11
1481268175971746,4,0,-2,3,4,12,6,3
1481268175971746,-2,1,-4,7,6,3,-2,-4
1481268175977753,11,4,3,15,12,13,5,7
1481268175977753,4,5,2,2,10,8,8,4
1481268176001225,-7,-2,-2,-12,-15,-15,-12,-13
1481268176001225,-6,-8,-2,-7,-10,-9,-7,-6
1481268176001225,2,8,5,-2,0,5,7,7
1481268176001225,-6,-6,-6,-18,-11,-17,-10,-9
1481268176015224,-4,0,1,-5,-5,-5,-6,-3
1481268176015224,11,7,1,7,13,13,11,8
1481268176022241,-1,-1,1,1,0,1,6,2
1481268176022241,-1,-1,-6,-9,-8,-9,-6,-10
1481268176031229,5,3,7,11,5,10,4,5
1481268176031229,8,3,1,4,5,5,10,6
1481268176037231,-8,-5,-5,-13,-9,-14,-13,-11
1481268176037231,-3,-6,-5,-1,-1,0,1,1
1481268176052239,6,1,4,2,4,6,7,9
1481268176052239,-4,-5,-3,-11,-6,-5,-10,-7
1481268176060246,-9,-8,-8,-12,-11,-7,-8,-7
1481268176060246,10,4,4,5,8,4,8,1
1481268176075819,-1,-2,-6,-6,-3,-2,1,-1
1481268176075819,-8,-5,-3,-9,-7,-10,-7,-4
1481268176076320,7,2,3,3,-3,1,0,8
1481268176076320,4,4,1,6,4,13,7,5
1481268176090955,-10,-3,-7,-4,0,-5,-8,-3
1481268176090955,-2,9,-1,6,4,4,4,1
1481268176096858,2,7,1,4,2,0,10,7
1481268176096858,-4,-1,-1,-3,-3,-12,-2,0
1481268176111859,-8,-4,-9,-10,-11,-9,-11,-7
1481268176111859,4,3,4,-3,-2,2,1,-1
1481268176119867,-2,-4,-6,-9,-10,-2,-3,-4
1481268176119867,-8,-8,-4,-7,-7,-6,-7,-9
1481268176135857,1,0,3,-5,2,0,1,5
1481268176135857,3,2,0,1,4,2,7,9
1481268176135857,-2,-2,-1,6,12,3,7,-1
1481268176135857,-2,-2,-1,11,14,16,4,8
1481268176150901,2,4,7,4,1,6,8,4
1481268176150901,-6,-4,-3,10,5,-5,-1,-1
1481268176156861,-4,-4,2,-2,-10,-5,-10,-3
1481268176156861,3,1,2,-11,-11,-5,-7,-2
1481268176172366,-2,-3,-4,-13,-9,-7,-6,-8
1481268176172366,-8,-7,-3,-7,-1,-9,-5,-9
1481268176179868,-2,0,0,-2,-8,4,0,2
1481268176179868,1,7,2,1,2,2,5,6
1481268176195376,-2,-8,-1,7,6,11,-2,-5
1481268176195376,3,5,2,12,11,6,3,6
1481268176196376,3,3,4,-3,8,11,2,5
1481268176196376,-4,-3,0,1,-1,-3,-4,-2
1481268176211376,-8,-7,-4,5,4,0,2,-2
1481268176211376,-4,1,-1,-7,-12,0,5,1
1481268176217377,-3,-6,-1,-5,-6,-7,-7,-2
1481268176217377,-8,-6,-6,-2,-6,-7,-7,-5
1481268176232378,8,5,3,-2,-3,-6,3,2
1481268176232378,1,3,-1,-5,-8,0,-9,3
1481268176239447,0,-2,-3,-1,3,-6,-2,-8
1481268176239447,0,1,6,8,-2,4,1,0
1481268176255469,-1,2,2,-2,6,-12,9,10
1481268176255469,-7,-4,0,-9,-9,-8,-4,-8
1481268176256399,0,0,-1,11,15,5,-2,3
1481268176256399,7,1,-2,2,12,6,8,2
1481268176271451,-1,-5,-6,-4,-7,-2,4,-2
1481268176271451,-5,-1,-1,0,-4,-8,-10,-7
1481268176277460,2,-1,-1,2,4,9,2,3
1481268176277460,-1,-6,-4,-12,-19,-11,-3,-2
1481268176292540,-7,-6,-1,-6,-14,-10,-15,-8
1481268176292540,0,-4,-5,-10,-12,-13,2,-7
1481268176299460,7,0,0,-1,2,3,10,9
1481268176299460,-2,-3,1,-12,-6,-6,-6,-7
1481268176315508,-1,-2,-2,8,-1,5,-7,-1
1481268176315508,7,3,6,12,11,20,10,10
1481268176316460,0,1,3,6,4,4,8,2
1481268176316460,-9,-12,-11,-8,-8,-13,-8,-7
1481268176331462,5,4,3,5,17,7,8,8
1481268176331462,4,-1,-3,-8,-3,-4,-2,-1
1481268176337495,-15,-7,-5,-17,-28,-16,-16,-12
1481268176337495,-7,-4,-2,-14,-13,-7,-6,-9
1481268176352531,10,0,7,4,5,8,5,4
1481268176352531,-2,-2,-3,-3,-9,-8,-10,-4
1481268176359463,0,2,1,2,0,5,-3,0
1481268176359463,5,6,10,16,13,17,14,13
1481268176375483,7,6,0,13,12,11,11,10
1481268176375483,-8,-3,-4,-8,-11,-12,-8,-13
1481268176376480,7,6,2,-5,2,1,3,6
1481268176376480,1,6,1,0,0,-6,2,2
1481268176391495,-8,-4,-7,-16,-12,-15,-12,-13
1481268176391495,-11,-14,-10,-17,-14,-7,-10,-6
1481268176397516,10,6,1,3,1,4,8,6
1481268176397516,-4,-2,-1,-3,0,4,-7,-1
1481268176412490,-7,1,-4,-2,-7,-4,-3,-1
1481268176412490,11,7,7,11,8,14,12,10
1481268176419491,-1,2,1,4,7,2,10,2
1481268176419491,-8,-8,-8,-4,-2,-6,-6,-6
1481268176435494,0,1,4,1,-6,4,0,4
1481268176435494,4,-5,-1,-5,5,6,1,0
1481268176436491,-15,-8,-6,-9,-13,-5,-12,-9
1481268176436491,-3,1,-6,-1,-3,-12,-4,-2
1481268176451494,6,0,3,-1,-4,10,3,0
1481268176451494,-6,-1,-5,1,-6,-11,-7,-7
1481268176457560,-5,-4,-1,-3,3,-10,-6,-6
1481268176457560,4,2,0,-2,0,6,0,6
1481268176472507,4,-2,1,-6,-2,4,0,-6
1481268176472507,-9,2,-1,6,4,1,-8,-5
1481268176480006,5,0,7,0,7,10,2,4
1481268176480006,1,4,3,6,4,5,3,1
1481268176495575,-9,-4,-6,2,12,-6,-5,-3
1481268176495575,3,-1,1,2,7,5,0,1
1481268176496519,11,2,-3,1,-6,4,-1,2
1481268176496519,-11,-3,-3,-13,-13,-13,-16,-15
1481268176511515,-10,-5,0,-7,-12,-6,-8,-7
1481268176511515,5,2,0,-6,-5,1,3,3
1481268176517515,-9,-3,-4,-15,-16,-16,-11,-8
1481268176517515,1,-4,-1,0,1,-1,-2,-4
1481268176533516,9,8,5,9,10,8,16,12
1481268176533516,8,8,7,8,7,12,8,6
1481268176539520,-5,-2,-3,7,11,0,-1,-4
1481268176539520,8,2,4,22,17,13,11,5
1481268176555518,7,0,-1,-2,4,3,6,5
1481268176555518,-11,-9,-7,-18,-20,-20,-15,-12
1481268176562518,-11,-7,-4,-6,-8,-8,-9,-7
1481268176562518,3,1,5,-5,-2,9,2,0
1481268176580069,-9,-6,-8,-18,-21,-13,-14,-8
1481268176580069,-6,-4,-1,0,4,-6,-1,-1
1481268176580527,13,3,5,7,21,14,7,9
1481268176580527,6,-1,2,9,11,9,3,12
1481268176592540,-6,-9,-3,-2,-3,-13,-4,-6
1481268176592540,1,2,1,14,16,15,9,11
1481268176599539,7,8,3,3,1,3,13,5
1481268176599539,-9,-10,-4,-17,-17,-13,-11,-12
1481268176614540,-6,-3,-6,-6,-2,-6,-9,-9
1481268176614540,3,2,1,0,1,5,7,11
1481268176622538,-7,-5,-5,-15,-13,-11,-7,-9
1481268176622538,-5,-3,-1,-6,-14,-13,-5,-12
1481268176631538,11,10,8,14,8,16,8,8
1481268176631538,-1,3,1,4,7,-7,2,-1
1481268176637538,-7,-7,-3,-6,-8,-12,-10,-6
1481268176637538,9,6,0,10,11,15,8,11
1481268176652541,8,3,6,5,5,8,8,12
1481268176652541,-7,-6,-5,-7,-11,-8,-11,-12
1481268176659539,-2,-4,1,7,3,2,4,2
1481268176659539,0,6,2,5,11,4,11,6
1481268176675049,-7,-6,-10,-4,-6,-6,-12,-6
1481268176675049,-9,-8,-11,-14,-11,-8,-15,-13
1481268176682549,7,1,6,4,3,11,8,6
1481268176682549,-3,-2,3,-8,-13,-7,-5,-2
1481268176697559,-12,-6,-3,-7,-6,-13,-11,-10
1481268176697559,3,-2,5,3,0,8,7,4
1481268176699558,4,7,1,6,8,3,9,9
1481268176699558,-8,-7,-3,5,2,-4,-6,-1
1481268176712560,3,3,1,6,12,11,5,1
1481268176712560,3,4,3,2,9,10,4,9
1481268176719560,-6,3,-6,6,4,-6,-4,-4
1481268176719560,-5,-8,-5,-8,-5,-10,-9,-5
1481268176734561,3,-1,-2,-11,-8,-6,2,-5
1481268176734561,-5,-2,-3,-15,-5,-12,-3,0
1481268176742564,-7,-8,-8,-3,-12,-4,-11,-10
1481268176742564,0,0,-5,-4,2,5,4,0
1481268176757588,5,-1,6,7,2,7,4,8
1481268176757588,1,-2,2,11,13,2,9,4
1481268176758563,-1,1,4,5,7,10,9,4
1481268176758563,8,7,0,-1,2,7,4,8
1481268176772573,-6,1,-1,7,-4,-3,-2,-5
1481268176772573,-7,-4,-2,-3,-4,-3,-9,-7
1481268176780075,-1,4,-1,-11,-9,-8,-8,2
1481268176780075,-7,-6,-6,-16,-15,-9,-2,-12
1481268176796238,-5,-6,-4,-7,-1,-11,-11,-9
1481268176796238,1,3,-4,-4,0,-3,0,3
1481268176802240,3,3,4,1,-8,2,2,0
1481268176802240,1,1,-3,12,5,2,-3,2
1481268176819241,2,2,-2,5,13,14,10,7
1481268176819241,9,4,6,3,-2,-1,6,1
1481268176820238,-1,-4,-3,-6,0,-1,-2,-7
1481268176820238,-2,-4,-1,0,2,0,-4,-2
1481268176832322,0,-1,1,-5,3,2,7,9
1481268176832322,-5,-6,-6,-5,-14,-4,-6,-3
1481268176839241,-7,-5,-7,-4,0,-7,-10,-7
1481268176839241,4,4,6,0,6,7,7,2
1481268176855280,-2,0,-1,-12,-14,-6,-5,-1
1481268176855280,-6,-6,-6,-4,-7,-7,-8,-12
1481268176862250,4,-4,0,3,-2,5,-5,-4
1481268176862250,2,0,2,-1,1,4,6,7
1481268176878334,-3,1,-1,-8,-8,-12,-2,-7
1481268176878334,3,1,-1,10,6,3,4,-3
1481268176879320,5,3,6,13,14,15,11,14
1481268176879320,2,-5,-3,3,7,2,0,4
1481268176891937,-10,-7,-3,-3,-7,-2,-8,-9
1481268176891937,5,5,6,6,9,7,8,8
1481268176899906,-1,-5,-5,-13,-6,-13,-2,-1
1481268176899906,-14,-11,-4,-17,-22,-25,-14,-18
1481268176914912,-8,-5,-6,-8,0,-6,-5,-4
1481268176914912,4,3,6,4,8,7,16,13
1481268176922834,-7,-4,-2,-8,-8,-13,-10,-9
1481268176922834,0,2,2,5,10,6,1,-1
1481268176937835,16,11,9,21,13,18,14,16
1481268176937835,5,8,2,11,14,9,2,5
1481268176938831,-8,-7,-3,-6,-13,-11,-9,-13
1481268176938831,5,6,1,9,8,-2,5,4
1481268176951911,-7,-2,-2,-8,-9,-3,-5,-3
1481268176951911,-15,-12,-11,-23,-18,-19,-28,-16
1481268176959835,-10,-7,-7,-17,-15,-9,-2,-1
1481268176959835,10,7,3,7,7,18,7,12
1481268176974928,-6,-3,-5,-3,-7,-12,-2,-1
1481268176974928,1,-5,0,-2,-4,-3,1,-1
1481268176982429,12,3,2,13,15,15,11,13
1481268176982429,8,10,2,15,13,8,1,1
1481268176997581,-10,-2,-10,-4,-4,-11,-7,-13
1481268176997581,-1,-1,2,2,2,10,-2,0
1481268176998581,5,4,2,6,6,-3,0,-3
1481268176998581,-13,-13,-5,-12,-12,-18,-13,-9
1481268177012617,-6,-5,-5,-10,-5,-12,-5,-1
1481268177012617,10,6,5,4,1,0,10,12
1481268177019668,-6,-8,-3,-1,4,1,-6,-3
1481268177019668,-6,-5,-3,-2,-4,-4,0,-2
1481268177034586,11,5,5,4,8,9,-1,5
1481268177034586,6,4,6,8,4,4,1,0
1481268177042634,-7,-4,0,-1,-2,-1,-2,0
1481268177042634,2,3,-4,-1,-5,3,5,3
1481268177057686,5,3,5,7,4,0,3,3
1481268177057686,-10,-2,-7,3,-4,-8,-1,-7
1481268177058590,-5,-5,-4,2,-3,-2,7,-2
1481268177058590,6,2,7,-6,-5,-3,1,6
1481268177072596,-4,-3,-3,-5,-13,-10,-15,-11
1481268177072596,-6,-6,-1,-8,-11,-4,-7,-12
1481268177080095,7,8,0,-7,-7,1,-1,0
1481268177080095,-2,1,0,-13,-10,-9,-5,-5
1481268177094637,-5,-2,0,6,5,2,-6,-8
1481268177094637,8,0,-1,7,10,9,13,16
1481268177110715,8,11,7,5,6,4,6,10
1481268177110715,-8,-5,-6,7,7,-2,1,-12
1481268177117633,5,2,3,6,10,13,1,-3
1481268177117633,0,0,3,-12,-1,0,-4,8
1481268177118634,-10,-10,-3,-12,-16,-20,-17,-10
1481268177118634,-7,-10,-6,-10,-10,-5,-11,-4
1481268177133638,9,0,-2,-9,-5,-6,12,4
1481268177133638,-8,-3,-4,-17,-30,-16,-5,-12
1481268177139652,-10,-5,-5,-2,8,-2,-7,-5
1481268177139652,16,13,6,13,14,13,18,16
1481268177154661,8,8,7,8,4,6,7,8
1481268177154661,-5,-3,-4,8,6,3,1,-6
1481268177162700,11,12,8,15,15,11,9,6
1481268177162700,8,5,7,-3,-3,1,6,2
1481268177178181,-13,-13,-7,-13,-14,-17,-13,-15
1481268177178181,-3,-8,-9,-8,1,-7,-5,-4
1481268177179219,5,0,0,-5,-7,-1,5,5
1481268177179219,-9,-9,-6,-18,-22,-17,-19,-12
1481268177191936,-5,-6,-4,-7,-9,2,-3,-5
1481268177191936,15,13,11,8,12,9,11,13
1481268177199936,7,11,6,8,0,1,-1,-1
1481268177199936,-10,-6,-5,-3,-6,-6,-7,-11
1481268177214938,9,8,0,12,14,7,16,10
1481268177214938,6,3,4,1,-2,5,5,6
1481268177222005,-9,-14,-9,-11,-7,-9,-14,-15
1481268177222005,-6,0,-2,2,7,1,2,2
1481268177238007,3,3,8,5,5,11,10,9
1481268177238007,-1,-5,-3,-10,-7,-11,-8,-9
1481268177238940,-12,-3,-5,-5,-14,-11,-6,-1
1481268177238940,13,4,3,0,5,10,6,6
1481268177253940,-1,-1,-5,-8,-6,-8,-9,-5
1481268177253940,-7,-9,-4,-8,-8,-8,-13,-14
1481268177259939,4,-7,-3,-3,3,11,12,6
1481268177259939,9,12,5,6,2,11,8,13
1481268177274953,-11,-5,-5,-6,-3,-5,-8,-7
1481268177274953,-7,-6,-3,10,3,5,1,1
1481268177282450,11,5,5,11,13,13,6,7
1481268177282450,-8,-5,-5,2,2,-7,-10,-7
1481268177298488,-8,-9,-4,-10,-6,-9,-7,-8
1481268177298488,3,0,-1,-11,1,5,-1,2
1481268177298488,-4,-6,-4,-14,-13,-13,-6,-9
1481268177298488,-11,-9,-7,-10,-15,-9,-7,-10
1481268177313501,4,5,7,5,-1,7,6,9
1481268177313501,5,11,5,5,2,5,5,7
1481268177319530,-5,-2,-4,8,0,4,-2,3
1481268177319530,3,1,3,10,14,10,6,3
1481268177334465,8,7,1,3,0,-1,3,3
1481268177334465,-8,-4,2,2,8,-3,-9,-5
1481268177342462,-10,-8,-7,-10,-6,-3,-7,-10
1481268177342462,4,0,-1,-9,-10,-11,-5,-2
1481268177357462,-6,-6,-3,-11,-16,-8,-7,-5
1481268177357462,-6,-3,-6,-7,-3,-6,-13,-8
1481268177358500,7,-1,-1,-6,-1,1,5,6
1481268177358500,5,2,1,-4,5,3,6,7
1481268177374006,2,4,3,12,16,3,11,7
1481268177374006,7,-1,-3,12,2,11,7,8
1481268177380006,5,6,6,3,0,3,2,5
1481268177380006,-7,1,0,1,10,1,-2,-9
1481268177395541,-6,-6,-3,3,-2,1,-6,-6
1481268177395541,-5,-4,-6,-15,-6,-2,-3,0
1481268177402516,0,-4,-1,-11,-12,-18,-7,-7
1481268177402516,-10,-5,-5,0,-4,-4,-9,-3
1481268177417520,6,3,-2,1,0,-1,-5,2
1481268177417520,0,2,1,-4,-4,-13,3,1
1481268177418562,4,-1,1,3,2,7,-6,-5
1481268177418562,5,1,5,2,6,4,8,0
1481268177433553,5,2,8,0,1,5,-2,3
1481268177433553,-2,-7,-2,-5,-4,-5,-6,-7
1481268177439518,-5,-2,2,11,7,2,8,3
1481268177439518,5,4,5,3,-5,0,3,11
1481268177456520,-3,-1,-6,-6,2,-3,2,-2
1481268177456520,-9,-5,-5,3,-4,-4,-6,-10
1481268177462521,-1,6,-2,-3,-7,-1,-1,-2
1481268177462521,-1,-2,2,-9,-9,-7,-7,-2
1481268177478097,-11,-14,-10,-16,-9,-14,-13,-13
1481268177478097,-1,4,2,-2,-9,-3,-3,1
1481268177479136,7,10,3,6,7,2,11,10
1481268177479136,-3,-6,-2,-5,-10,-7,-6,-2
1481268177493610,-5,0,1,4,3,9,8,5
1481268177493610,13,12,8,15,22,14,18,15
1481268177507691,1,6,3,11,10,11,4,2
1481268177507691,-19,-10,-9,-5,-5,-14,-9,-12
1481268177514630,3,8,-1,2,2,1,4,9
1481268177514630,-2,-3,0,-9,-5,-6,-2,-2
1481268177522673,-18,-13,-15,-24,-20,-17,-15,-21
1481268177522673,3,-6,-6,-7,-7,-8,-3,-3
1481268177537613,12,6,9,9,9,8,13,12
1481268177537613,-10,-5,-1,-8,-11,-5,-6,-8
1481268177538610,-6,-3,0,2,1,1,-2,-3
1481268177538610,13,15,11,21,12,20,13,17
1481268177553618,0,9,8,19,13,10,2,-1
1481268177553618,-6,-16,-9,-10,-7,-12,-8,-14
1481268177559719,4,4,2,2,7,2,4,7
1481268177559719,0,0,-2,-1,-2,3,-1,-1
1481268177575238,-18,-9,-5,-19,-15,-16,-17,-14
1481268177575238,-1,-12,-8,-11,-14,-11,-1,-3
1481268177582738,12,14,8,3,-1,10,8,12
1481268177582738,-4,-4,-7,-2,-4,-3,1,0
1481268177597278,2,-1,-7,-4,-6,1,2,0
1481268177597278,8,13,4,9,15,15,3,16
1481268177605298,2,2,6,14,21,10,4,4
1481268177605298,-11,-6,-9,-4,-4,-3,-9,-13
1481268177620281,4,-2,4,-7,-6,-2,4,0
1481268177620281,4,5,3,7,6,-1,5,3
1481268177621282,-12,-13,-9,-2,-4,-6,-13,-7
1481268177621282,3,-4,-1,-7,-4,-10,-4,-4
1481268177634358,6,-1,2,4,2,3,4,6
1481268177634358,-6,-2,1,-2,-6,-7,-4,-8
1481268177642361,-4,-6,-9,-11,-9,-8,-5,-8
1481268177642361,9,8,6,0,6,8,7,9
1481268177657363,-1,0,1,-1,0,6,0,1
1481268177657363,3,1,1,3,2,2,-5,-10
1481268177665289,9,5,2,1,1,6,12,19
1481268177665289,-2,3,-4,-2,11,0,1,3
1481268177688425,-6,-6,-6,2,2,1,-2,-2
1481268177688425,-3,4,2,9,2,3,1,-5
1481268177689423,1,1,2,-5,-1,-2,2,1
1481268177689423,-10,-10,-5,-7,-10,-13,-17,-18
1481268177694424,1,-1,-2,-10,-8,-11,-9,-5
1481268177694424,4,3,-2,-8,-9,3,-1,6
1481268177702423,-5,-7,-9,-18,-15,-14,-9,-7
1481268177702423,2,-7,-1,3,-3,-3,-3,-4
1481268177717504,16,5,7,9,8,10,9,16
1481268177717504,6,5,4,5,5,7,10,4
1481268177724505,-4,-2,-3,10,6,-2,-4,-14
1481268177724505,6,10,3,7,7,15,8,-5
1481268177740507,1,1,-1,1,-1,2,3,-2
1481268177740507,-12,-15,-9,-16,-15,-15,-17,-16
1481268177741427,-2,-11,-7,-7,-8,-8,-10,-2
1481268177741427,4,2,2,-6,-3,3,5,3
1481268177754429,-12,-7,-9,-23,-31,-22,-11,-10
1481268177754429,-6,-3,-4,-2,-10,-2,-6,-3
1481268177762429,10,13,15,16,17,13,17,9
1481268177762429,1,6,7,10,6,8,3,4
1481268177777450,-5,-6,-8,0,2,-7,-4,-4
1481268177777450,7,12,11,20,20,20,13,10
1481268177784956,3,0,7,4,-1,4,5,1
1481268177784956,-16,-11,-12,-12,-14,-22,-15,-9
1481268177801038,-3,-6,-7,-8,-7,-5,-5,0
1481268177801038,0,-3,-3,-3,4,2,6,6
1481268177801038,-16,-13,-9,-17,-18,-14,-16,-11
1481268177801038,-2,-8,-5,-6,-9,-7,-11,-8
1481268177815030,14,10,11,11,12,16,13,12
1481268177815030,-1,1,4,-2,-1,-2,-2,-3
1481268177822034,-6,-5,-3,-8,-7,-5,-5,-5
1481268177822034,10,11,7,13,11,10,9,11
1481268177837047,3,9,9,8,10,4,2,4
1481268177837047,-12,-10,-7,-8,-11,-16,-7,-16
1481268177845039,2,-2,-5,1,1,5,0,6
1481268177845039,4,0,5,-1,1,6,11,7
1481268177861075,-13,-10,-7,0,-7,-2,-9,-8
1481268177861075,-13,-10,-16,-11,-7,-19,-5,-12
1481268177861075,12,8,9,1,2,5,9,9
1481268177861075,-3,-1,-4,-11,-3,-5,-2,-3
1481268177875050,-5,-12,-11,-12,-13,-7,-5,-9
1481268177875050,10,3,-1,4,0,10,3,13
1481268177882551,6,4,4,10,8,9,14,8
1481268177882551,-15,-7,-2,1,2,2,-6,3
1481268177896774,8,4,4,14,13,4,7,2
1481268177896774,6,9,4,6,8,4,2,4
1481268177904799,-8,1,-1,1,5,-5,-11,-13
1481268177904799,-5,-5,-9,-8,-13,-4,-11,-6
1481268177920868,-4,4,2,-6,-8,-13,-5,-5
1481268177920868,-6,-8,-1,-11,-13,-9,-4,-3
1481268177920868,-6,-11,-6,-8,-6,-8,-9,-5
1481268177920868,2,-4,-1,-8,-3,1,11,5
1481268177942799,8,6,0,-2,6,5,0,6
1481268177942799,0,6,0,15,6,5,1,-1
1481268177943801,1,3,0,8,10,8,3,6
1481268177943801,6,6,8,2,2,5,6,1
1481268177965799,-11,1,1,4,8,-1,-5,-2
1481268177965799,-7,-6,-10,-3,6,-6,-4,-2
1481268177965799,-1,-3,-1,-15,-8,-7,-9,-1
1481268177965799,-7,-7,-8,-13,-14,-15,-9,-8
1481268177980809,-8,-11,-9,-7,-3,-4,-5,-7
1481268177980809,4,-3,1,-6,-9,-2,4,8
1481268177981306,4,9,-1,-9,-5,2,-2,-1
1481268177981306,0,7,1,7,9,0,-3,0
1481268177995322,7,2,9,12,7,11,2,12
1481268177995322,6,3,3,2,4,5,-1,2
1481268178002394,-5,-1,-2,5,0,-7,2,-4
1481268178002394,1,-7,-5,5,0,11,4,7
1481268178017319,-1,1,-3,-8,-3,-6,7,-10
1481268178017319,-10,-7,0,-11,-7,-7,-8,-7
1481268178025325,-1,-4,-2,3,-7,-14,-6,-2
1481268178025325,1,1,0,-7,4,-5,2,0
1481268178040400,0,4,-7,-8,-11,-9,-2,-3
1481268178040400,-3,-3,-2,-1,-9,-2,-5,-12
1481268178041324,-2,1,-1,2,-4,2,-1,0
1481268178041324,7,5,4,1,5,4,5,1
1481268178054345,-2,-4,-10,-11,-8,-2,-12,-3
1481268178054345,3,0,4,5,16,-2,9,6
1481268178062318,7,2,11,12,4,20,7,13
1481268178062318,2,0,-4,4,5,-7,5,-2
1481268178077413,-10,-7,-1,-5,-4,6,-20,-12
1481268178077413,8,7,-1,-1,3,3,2,3
1481268178084411,-4,-4,-1,-12,-9,3,-9,-13
1481268178084411,-17,-17,-10,-15,-17,-17,-15,-18
1481268178100419,-2,-5,2,-10,-4,-8,2,-2
1481268178100419,8,6,7,7,-2,-1,3,11
1481268178101420,-5,-8,-1,-7,-7,-6,-5,-6
1481268178101420,3,5,-2,7,6,5,4,5
1481268178114420,12,15,13,18,9,16,19,17
1481268178114420,3,6,8,10,8,9,0,4
1481268178122517,-10,-6,-15,-4,-3,-11,-8,-10
1481268178122517,3,8,10,3,-4,4,-1,4
1481268178137424,-7,-5,0,-1,-1,-11,-3,-4
1481268178137424,-16,-17,-15,-20,-18,-10,-17,-17
1481268178144427,-3,-11,-11,-15,-8,-13,-1,-1
1481268178144427,8,4,5,9,11,9,7,9
1481268178160530,-3,-5,-5,1,-4,-6,0,-2
1481268178160530,-3,0,1,4,-3,6,-3,-2
1481268178161429,13,14,9,17,18,9,12,11
1481268178161429,-1,11,10,17,11,9,0,1
1481268178174941,-10,-7,-7,-6,-7,-5,-7,-10
1481268178174941,5,2,0,0,5,3,5,6
1481268178182442,-3,-2,-1,3,-2,-2,-4,1
1481268178182442,-11,-11,-13,-15,-13,-11,-15,-8
1481268178197111,-2,-6,-4,-12,-6,-7,-4,0
1481268178197111,4,7,1,2,-2,2,4,4
1481268178205175,-4,-3,-1,1,3,-2,-6,-5
1481268178205175,-2,-2,-6,-6,-6,2,3,1
1481268178221116,9,9,6,3,4,6,3,1
1481268178221116,2,9,3,9,9,6,-1,3
1481268178221116,-4,-6,-8,-3,-3,-1,4,-8
1481268178221116,4,-2,5,-2,-5,4,2,4
1481268178235114,0,-1,1,3,-1,-2,3,0
1481268178235114,-11,-6,-4,-1,-2,-1,-4,-8
1481268178242126,-4,-2,-4,-8,-7,-7,-3,-4
1481268178242126,-1,3,2,-2,-1,0,2,-1
1481268178257143,-17,-7,-13,-5,-6,-4,-10,-10
1481268178257143,-2,-7,-1,-8,-7,-3,-2,-5
1481268178265173,3,6,4,0,-3,9,0,4
1481268178265173,-2,-2,-3,-6,-10,-9,-1,-5
1481268178280790,-4,-3,-2,6,2,6,1,-1
1481268178280790,8,13,4,10,9,8,14,10
1481268178281790,3,5,7,8,12,-2,1,4
1481268178281790,-2,-5,-3,6,2,0,-6,-5
1481268178294802,11,10,6,7,14,11,8,6
1481268178294802,3,-2,-1,-7,-7,-8,-7,-9
1481268178301802,-12,-11,-12,-11,-8,-15,-12,-13
1481268178301802,-1,-6,-2,-7,-7,-4,-9,-5
1481268178316802,2,-1,-4,-11,-9,-7,3,6
1481268178316802,-12,-14,-6,-22,-20,-13,-16,-9
1481268178324803,-6,-3,3,1,3,-1,3,0
1481268178324803,12,15,5,12,14,9,10,18
1481268178340809,3,6,3,3,3,3,4,3
1481268178340809,-8,-3,1,9,9,4,-1,-2
1481268178340809,11,10,9,17,10,14,14,17
1481268178340809,1,3,6,1,1,3,3,0
1481268178354872,-12,-11,-11,-18,-15,-15,-15,-14
1481268178354872,-3,-8,-7,-12,-6,-6,-3,-3
1481268178361811,7,1,3,-3,0,-4,0,4
1481268178361811,-19,-12,-10,-18,-11,-17,-10,-11
1481268178377374,-3,-3,0,-2,-2,-7,-4,-9
1481268178377374,14,17,14,14,7,15,16,17
1481268178384822,1,3,9,5,3,1,-2,-5
1481268178384822,-5,0,-7,-4,-4,-2,-7,-9
1481268178400834,14,9,13,18,9,11,14,7
1481268178400834,-1,4,3,5,2,0,5,0
1481268178401831,-15,-17,-13,-15,-14,-13,-9,-13
1481268178401831,5,-4,-3,4,-3,5,-3,-1
1481268178414832,5,4,1,3,-1,-3,4,9
1481268178414832,-11,-11,-7,-9,-9,-11,-13,-9
1481268178421901,-9,-7,-7,-10,-8,-1,-6,-8
1481268178421901,9,11,7,8,9,9,14,8
1481268178437841,-3,0,-3,-3,-10,2,-5,-4
1481268178437841,-2,-9,-11,-8,-6,-6,-8,-2
1481268178444836,10,11,8,9,11,11,7,8
1481268178444836,6,7,8,3,-4,0,4,6
1481268178460836,-13,-12,-4,-7,5,-3,-5,-9
1481268178460836,2,2,0,4,4,10,-1,-1
1481268178460836,3,7,-1,5,6,6,5,3
1481268178460836,-10,-10,-7,-1,-1,-11,-10,-6
1481268178474845,-8,-12,-11,-9,-14,-11,-11,-1
1481268178474845,7,4,1,-6,5,-3,5,5
1481268178482346,-5,-7,-8,-16,-10,-13,-11,-13
1481268178482346,-9,-12,-2,-7,-6,-8,-8,-7
1481268178497415,8,6,1,0,0,9,4,11
1481268178497415,2,10,3,5,1,9,4,5
1481268178504416,-6,-2,1,7,0,3,0,-1
1481268178504416,3,4,3,13,14,8,13,7
1481268178519510,7,4,4,1,9,-4,7,4
1481268178519510,-10,-4,-1,11,1,6,-1,-3
1481268178528417,-9,-8,-11,-11,5,0,-6,-4
1481268178528417,2,-4,-2,-11,-12,-9,-6,-3
1481268178534418,-11,-12,-3,-11,-16,-9,-17,-11
1481268178534418,-3,-9,-7,-11,-4,-12,-3,-3
1481268178542418,4,5,-5,-1,-13,5,4,5
1481268178542418,6,4,7,0,3,2,0,3
1481268178557511,-2,6,5,16,10,9,4,4
1481268178557511,6,6,9,7,4,-1,13,7
1481268178564422,6,9,3,0,6,4,3,8
1481268178564422,-8,1,-2,6,-1,-8,1,-5
1481268178579970,-2,-2,-7,-4,5,1,2,-1
1481268178579970,1,-5,-3,-9,-12,-9,1,-3
1481268178587559,-10,-7,-9,-9,-8,-13,-12,-6
1481268178587559,-7,-5,-5,-1,3,13,-7,-4
1481268178602559,0,-3,-2,-4,-1,5,1,4
1481268178602559,-3,2,-1,-2,-6,-9,0,-5
1481268178603558,2,0,1,3,-4,0,-6,-4
1481268178603558,9,6,4,1,7,5,13,0
1481268178617638,2,6,5,7,-12,13,-6,-5
1481268178617638,-8,-7,-4,-8,14,-3,-6,-3
1481268178624637,3,-2,2,13,1,7,3,2
1481268178624637,8,2,2,4,-1,2,3,4
1481268178639615,-8,-4,-1,-3,2,-7,1,-2
1481268178639615,-4,-11,-8,-2,-10,-10,-8,-7
1481268178647579,7,1,2,-3,6,10,7,12
1481268178647579,-10,-2,-1,-12,-5,-5,-8,-6
1481268178662564,-6,-5,-5,-5,-9,-12,-6,-8
1481268178662564,3,-1,-5,-5,0,3,0,0
1481268178663562,2,9,6,0,3,4,2,3
1481268178663562,-5,-9,-5,-4,-13,-6,-11,-1
1481268178677587,1,4,6,9,5,-3,10,6
1481268178677587,10,9,11,18,13,18,9,8
1481268178684590,3,7,2,10,0,-5,2,1
1481268178684590,-9,-12,-7,-7,-1,-1,-2,-10
1481268178699619,4,9,3,6,-1,2,12,6
1481268178699619,1,-6,-1,-15,6,1,-10,-3
1481268178707704,-14,-15,-15,-12,-23,-26,-5,-16
1481268178707704,-3,-7,-4,-11,-9,1,-8,-3
1481268178722623,12,7,13,7,9,2,-2,8
1481268178722623,-7,-3,-10,-7,-16,-5,-4,-10
1481268178723618,2,0,6,1,6,13,0,2
1481268178723618,16,6,3,15,14,1,14,10
1481268178737690,4,7,8,9,13,4,7,8
1481268178737690,-9,-7,-8,-2,-6,-5,-7,-7
1481268178744623,0,6,9,-2,3,1,4,-4
1481268178744623,-1,-3,1,-2,2,0,-4,-7
1481268178759697,-12,-14,-17,-14,-15,-9,-19,-14
1481268178759697,-9,-4,-5,-16,-5,-10,-4,-9
1481268178775753,9,6,2,5,3,6,0,11
1481268178775753,-2,5,-2,2,1,-6,1,-3
1481268178783213,5,1,-1,-5,-1,10,0,-1
1481268178783213,8,8,10,10,8,12,7,11
1481268178784232,5,3,5,13,6,4,3,2
1481268178784232,-7,-8,-6,-8,-5,-1,-10,-1
1481268178799044,-3,-2,-3,-8,2,-3,4,8
1481268178799044,2,2,5,4,-2,-2,-3,-6
1481268178805122,-12,-9,-14,-10,-4,-8,-3,-8
1481268178805122,-4,-5,-5,-9,-3,1,1,-1
1481268178820047,3,-1,5,4,1,-2,3,-3
1481268178820047,-6,-4,-2,-1,-1,-7,-3,-3
1481268178828052,1,-2,-4,-7,-4,2,-2,0
1481268178828052,9,10,2,1,0,-3,5,5
1481268178843155,6,6,-1,-4,-6,-4,-1,-9
1481268178843155,1,-5,2,-2,4,4,0,-2
1481268178844053,6,8,4,8,4,-3,9,8
1481268178844053,-2,2,3,3,1,0,-4,-3
1481268178857051,-10,-12,-4,-1,4,0,-5,2
1481268178857051,2,3,3,4,-6,3,4,9
1481268178865069,8,1,3,-5,-6,-3,-3,-1
1481268178865069,-16,-14,-14,-13,-13,-15,-8,-14
1481268178880068,-1,-8,-4,-10,0,1,-6,0
1481268178880068,-1,-2,-1,0,0,2,0,7
1481268178887685,-10,-12,-4,-10,-10,-9,-7,-12
1481268178887685,2,2,1,5,3,2,5,3
1481268178902626,13,12,7,12,3,4,12,15
1481268178902626,2,6,7,6,1,-1,2,2
1481268178903626,0,-6,1,6,1,-3,-6,0
1481268178903626,7,9,11,15,8,12,7,14
1481268178917688,-2,0,5,0,4,5,2,-1
1481268178917688,-10,-11,-12,-12,-18,-9,-10,-13
1481268178924716,-3,-8,-7,-7,-6,0,-7,-3
1481268178924716,3,3,-1,-3,-11,-1,6,3
1481268178939731,-15,-17,-12,-15,-14,-7,-9,-11
1481268178939731,-3,-2,-5,2,1,-2,-1,-4
1481268178947688,9,12,10,11,14,4,14,13
1481268178947688,4,9,5,9,-1,1,-6,1
1481268178962630,-5,-7,-7,-4,1,-2,-3,-4
1481268178962630,17,16,9,16,17,10,10,15
1481268178963627,3,-2,1,-5,5,-6,3,-3
1481268178963627,-15,-14,-9,-11,-15,-4,-14,-12
1481268178977769,-4,0,-10,-3,-4,-5,-4,-4
1481268178977769,3,1,2,-1,-5,1,1,3
1481268178984815,-11,-11,-5,-12,-7,-8,-10,-5
1481268178984815,-5,-5,0,-10,1,-5,-1,-4
1481268178999955,13,13,13,9,13,5,13,9
1481268178999955,-2,-4,3,-1,-8,0,-7,-3
1481268179006956,-7,-5,-9,-9,-1,-2,-3,-7
1481268179006956,13,11,6,6,7,5,2,4
1481268179022962,5,3,3,8,-1,-1,0,6
1481268179022962,-12,-13,-7,-9,3,-11,-6,-12
1481268179023876,-2,2,-2,4,-4,5,0,2
1481268179023876,-5,2,5,1,2,-2,2,4
1481268179036882,-5,-8,-10,-6,0,-3,-11,-12
1481268179036882,-4,-5,-7,-5,-9,-5,-2,1
1481268179044946,12,11,7,2,4,4,1,4
1481268179044946,0,-7,-1,-9,-2,-2,-4,-6
1481268179059881,-4,-5,-5,-5,-11,-3,-10,-7
1481268179059881,11,8,2,-2,0,1,9,4
1481268179066959,3,0,7,7,2,7,4,5
1481268179066959,-7,-1,-5,1,6,-4,3,-3
1481268179083427,7,8,4,4,5,4,4,-1
1481268179083427,3,8,1,4,1,5,0,8
1481268179083897,-8,-1,-4,0,2,-10,-3,-9
1481268179083897,-8,-11,-9,-6,-5,1,-5,-3
1481268179097197,0,-2,1,-7,0,-1,1,2
1481268179097197,-11,-8,-8,-8,-3,-1,-4,-7
1481268179105259,-4,-8,-5,-10,-5,-3,-8,-9
1481268179105259,2,2,4,-4,0,1,5,4
1481268179120252,1,2,5,-2,-2,3,2,5
1481268179120252,-1,2,0,4,-1,-2,-1,-4
1481268179127270,4,11,9,12,4,13,11,11
1481268179127270,7,6,7,4,3,-4,3,-1
1481268179143277,-5,-4,2,1,-3,-2,-6,-6
1481268179143277,1,-5,-3,-3,-1,-1,2,-5
1481268179144198,-1,-3,-4,-11,-5,5,2,2
1481268179144198,-8,-12,-9,-9,-1,-2,-6,-11
1481268179157199,-5,-7,-2,-3,-2,-3,-2,-3
1481268179157199,-2,4,0,-1,-1,3,2,4
1481268179165198,-4,-3,-1,-4,-4,-8,-2,-2
1481268179165198,-3,1,-3,6,6,-1,0,-1
1481268179180253,12,12,8,13,7,7,7,6
1481268179180253,3,1,10,2,-4,0,-1,3
1481268179187795,-3,-5,-6,-3,1,-8,-6,-7
1481268179187795,-2,4,-4,5,-2,5,1,3
1481268179202796,2,3,1,-1,3,0,6,0
1481268179202796,-8,-13,-11,-9,-2,-10,-5,-3
1481268179203796,-1,-2,-5,-2,-6,-4,-4,1
1481268179203796,9,5,3,2,5,1,6,8
1481268179217753,1,-7,-2,-9,-4,-1,-2,-8
1481268179217753,-3,-2,-2,-7,-6,-4,-2,-6
1481268179224797,6,8,1,7,-1,9,4,1
1481268179224797,6,5,0,5,0,-2,1,6
1481268179239856,-8,-4,-9,-4,-7,-7,-11,-10
1481268179239856,1,2,0,7,8,3,-1,2
1481268179247767,0,3,5,2,11,6,4,7
1481268179247767,-6,-3,-1,1,-4,-1,-4,0
1481268179262797,-8,-8,-6,-8,-9,-6,-5,-6
1481268179262797,5,5,9,12,2,4,10,6
1481268179263800,-3,-3,-4,-7,-4,-6,0,-4
1481268179263800,-8,-7,-10,-9,-3,-4,-9,-14
1481268179277380,-4,-6,-3,-5,2,-2,-1,-1
1481268179277380,6,5,5,3,5,6,6,1
1481268179284884,-7,-1,-6,-3,-14,-6,-6,-6
1481268179284884,0,-4,0,3,-2,6,3,2
1481268179299890,6,12,5,8,4,5,3,14
1481268179299890,4,11,2,9,6,3,0,3
1481268179306959,-8,-15,-8,-9,-7,-8,-8,-8
1481268179306959,11,6,7,9,1,1,4,5
1481268179322892,0,-1,-4,1,-4,-3,-6,-4
1481268179322892,-18,-14,-13,-14,-9,-4,-12,-12
1481268179323892,-9,-14,-7,-12,-8,-9,-8,-8
1481268179323892,8,11,6,2,9,8,4,6
1481268179336893,-7,-5,-5,-4,-6,-2,0,-7
1481268179336893,2,-4,2,6,-2,-5,-1,3
1481268179352893,14,16,11,13,2,11,10,15
1481268179352893,8,14,5,10,6,1,9,2
1481268179359956,-6,-10,-7,-3,-6,-2,-2,-4
1481268179359956,1,-3,2,-4,0,1,-3,-1
1481268179366956,5,5,2,0,1,0,2,-3
1481268179366956,-12,-15,-7,-10,-14,-11,-8,-9
1481268179383910,-7,-11,-6,-9,-3,-5,-6,-2
1481268179383910,7,3,0,3,2,-2,2,0
1481268179384911,-6,-6,-7,-7,-2,-2,-6,-9
1481268179384911,-4,-5,-1,-3,0,-3,0,1
1481268179396923,11,12,9,7,0,3,7,4
1481268179396923,2,4,-3,-4,-3,0,-1,-3
1481268179404921,-6,-8,-3,4,1,1,2,-3
1481268179404921,4,4,1,-5,4,4,6,5
1481268179427924,-1,2,-1,0,-1,0,4,3
1481268179427924,-6,-9,-3,-3,-1,0,-3,-8
1481268179435987,-3,-8,-3,2,4,-2,-2,1
1481268179435987,1,0,2,-8,-5,-2,-1,-2
1481268179441922,-7,-3,-3,-5,-5,-1,-8,-9
1481268179441922,-8,-6,-4,-2,2,2,1,2
1481268179450970,4,0,-2,-6,-3,-3,1,1
1481268179450970,-3,-3,-4,-4,-8,-3,-8,-6
1481268179456926,-6,-2,3,1,1,-3,-2,-1
1481268179456926,9,7,4,2,-1,-3,-2,7
1481268179464926,9,10,6,10,7,2,2,5
1481268179464926,-6,-5,-1,3,7,1,-5,0
1481268179479946,0,-2,-4,7,1,4,4,7
1481268179479946,2,2,0,-2,-6,0,0,1
1481268179487571,-10,-12,-11,-11,-4,-6,-3,-4
1481268179487571,-5,-11,-5,-7,-10,-10,-11,-3
1481268179502571,4,1,2,-6,2,-5,-1,0
1481268179502571,-6,-5,-3,-11,-8,-2,-2,-9
1481268179510571,-5,-8,2,-6,-9,-4,-7,-8
1481268179510571,10,13,10,1,0,5,5,3
1481268179525576,9,15,10,12,6,5,7,8
1481268179525576,-3,-3,-7,2,4,0,1,1
1481268179526613,5,10,8,10,4,5,-1,2
1481268179526613,4,9,2,6,4,4,3,0
1481268179541580,-9,-13,-12,-11,-6,-4,-6,-7
1481268179541580,-10,-8,-14,-9,-8,-12,-10,-9
1481268179547574,3,13,3,0,-5,-3,6,7
1481268179547574,-9,-13,-9,-11,-9,-5,-4,-6
1481268179562580,-5,-7,-10,-9,-6,-6,-5,-4
1481268179562580,18,12,9,10,3,4,4,6
1481268179570607,6,7,9,11,9,5,4,5
1481268179570607,-7,-9,-6,-4,-4,-2,-4,-9
1481268179585622,5,10,8,6,8,3,7,3
1481268179585622,9,7,5,2,2,5,10,8
1481268179585622,-10,-18,-11,-8,-7,-6,-6,-7
1481268179585622,-3,-4,-7,-4,-7,-4,-5,2
1481268179607784,9,2,10,6,-4,-2,5,4
1481268179607784,-12,-11,-7,-7,-9,-2,-7,-7
1481268179608711,-9,-10,-9,-10,-5,-10,-5,-5
1481268179608711,8,15,3,5,7,7,5,-4
1481268179622770,2,-2,-2,3,2,-4,-6,-5
1481268179622770,-9,-9,-6,-6,0,-2,-5,-6
1481268179637740,8,9,7,2,-1,8,5,5
1481268179637740,10,2,6,10,5,1,8,9
1481268179645708,-12,-8,-9,-3,-2,-5,-6,-5
1481268179645708,-1,3,4,4,4,1,4,2
1481268179645708,5,10,8,10,10,1,1,5
1481268179645708,-6,-1,2,3,-5,-6,-2,-5
1481268179659896,-7,-14,-8,-11,-14,-7,-6,-6
1481268179659896,5,-3,3,-1,-1,1,5,8
1481268179667742,-3,-8,-8,-6,-3,1,-3,-8
1481268179667742,-13,-9,-6,-6,-11,-7,-4,-4
1481268179682334,5,5,1,-2,-4,2,4,8
1481268179682334,6,3,7,3,5,-2,6,7
1481268179690407,-5,-2,2,5,-1,1,1,0
1481268179690407,8,4,2,11,6,3,6,0
1481268179705343,5,6,2,2,6,8,4,0
1481268179705343,-4,-3,-2,-3,-3,1,-5,-8
1481268179706344,-11,-9,-6,-2,-6,-5,-6,-10
1481268179706344,-2,-8,-5,-14,-5,-2,-4,0
1481268179719343,-8,-9,-8,-7,-6,-5,-8,-7
1481268179719343,-3,-8,-5,-3,-9,-2,-10,-9
1481268179735341,4,3,-1,-3,-1,2,0,-1
1481268179735341,5,5,7,-1,-7,2,6,4
1481268179742345,1,4,6,8,8,10,3,-2
1481268179742345,5,11,5,10,5,3,8,5
1481268179750423,9,2,2,1,-1,4,1,4
1481268179750423,-1,-2,-1,0,2,-2,3,-3
1481268179765347,-1,-5,-1,3,2,0,1,-2
1481268179765347,-7,-8,-3,-11,-1,-2,-4,-2
1481268179766343,-10,-13,-11,-12,-8,-6,-3,-6
1481268179766343,-10,-6,-9,-5,0,0,-4,-8
1481268179779852,3,2,-1,-2,0,-4,-2,1
1481268179779852,1,4,-2,-10,0,2,-2,-4
1481268179787283,-2,-1,3,3,-3,1,0,6
1481268179787283,8,3,8,0,1,1,-2,1
1481268179802206,5,7,1,2,-1,0,3,1
1481268179802206,-4,-8,-4,-6,1,-4,0,-3
1481268179810292,0,-1,-3,9,8,-1,-1,2
1481268179810292,6,1,5,3,-5,2,0,6
1481268179825290,-2,-4,-3,-6,-6,-4,0,-1
1481268179825290,-6,-5,-8,-4,-2,0,-7,0
1481268179826210,6,7,4,2,4,5,7,6
1481268179826210,-3,-4,-4,-10,-3,-1,-5,-3
1481268179840271,-12,-16,-16,-18,-7,-7,-7,-13
1481268179840271,-1,0,-1,-2,-11,-5,-4,-5
1481268179847304,9,9,4,0,-3,2,2,4
1481268179847304,-6,-11,-6,-8,-4,-1,-2,-3
1481268179862209,3,7,6,6,5,0,1,3
1481268179862209,18,13,9,12,9,6,8,11
1481268179870803,-1,7,3,5,3,3,5,1
1481268179870803,-10,-8,-8,-7,-2,-3,-5,-6
1481268179885805,4,6,6,6,-4,1,-3,5
1481268179885805,-2,-2,0,-3,-1,3,3,1
1481268179885805,-14,-18,-17,-18,-11,-7,-11,-10
1481268179885805,-7,-5,-12,-9,-6,-7,-7,-5
1481268179899956,7,7,10,7,8,10,8,9
1481268179899956,-7,-7,-8,-6,-5,-7,-6,-6
1481268179906924,0,0,4,-1,-7,-6,-6,-6
1481268179906924,11,19,14,14,8,2,6,8
1481268179921850,6,7,11,13,12,8,8,10
1481268179921850,-13,-11,-8,-7,-10,-13,-8,-10
1481268179930860,3,-4,1,-3,-2,-5,0,2
1481268179930860,-2,-6,1,-3,11,5,2,3
1481268179945846,-12,-13,-12,-13,-7,-7,-7,-12
1481268179945846,-8,-6,-11,-15,-23,-11,-10,-14
1481268179945846,12,15,4,4,9,5,4,4
1481268179945846,2,-1,-4,1,2,4,3,3
1481268179959928,-2,-5,-6,-7,-15,-10,-8,-4
1481268179959928,9,14,12,13,4,6,5,8
1481268179966926,9,5,11,10,23,13,3,6
1481268179966926,-7,-8,-7,-3,-17,-12,-6,-5
1481268179982362,-4,2,0,-6,-17,-4,-2,-4
1481268179982362,2,5,6,3,23,10,6,10
1481268179990962,-9,-13,-8,-11,-9,-6,-1,-7
1481268179990962,-8,-4,-12,-6,-40,-21,-8,-5
1481268180005963,7,3,2,2,23,9,10,8
1481268180005963,2,-1,-1,1,21,5,-2,-4
1481268180005963,-4,-5,-9,-6,-44,-13,-8,-10
1481268180005963,4,5,5,3,7,5,3,1
1481268180019903,8,6,0,5,33,11,5,7
1481268180019903,-6,-10,-7,0,-40,-5,-9,-5
1481268180026969,8,0,2,7,-1,3,6,7
1481268180026969,7,8,9,7,49,10,6,2
1481268180041932,-7,0,-1,3,-10,-4,-4,-7
1481268180041932,-7,-8,-5,-4,-26,-7,-5,6
1481268180050938,3,2,2,-3,33,2,2,-1
1481268180050938,-11,-9,-7,-13,2,-6,-10,-6
1481268180065966,-8,-12,-11,-5,-33,-17,-5,-12
1481268180065966,5,4,6,-6,7,1,6,4
1481268180065966,-6,-8,-4,-10,21,0,-1,-6
1481268180065966,-6,-7,-6,2,-27,-11,-2,-2
1481268180080024,15,17,10,14,11,7,5,8
1481268180080024,10,6,4,10,29,11,11,8
1481268180087149,-5,4,1,10,-8,-1,-4,0
1481268180087149,8,8,6,8,-13,7,6,5
1481268180102140,3,0,6,0,16,4,3,2
1481268180102140,-16,-18,-8,-19,-12,-11,-10,-18
1481268180111076,-7,-6,-7,-5,-17,-11,-4,-5
1481268180111076,13,0,4,-1,16,2,3,1
1481268180125152,-12,-15,-12,-22,4,-9,-4,-8
1481268180125152,0,-6,-6,-1,0,-7,-7,-6
1481268180126084,11,16,16,19,23,11,11,11
1481268180126084,3,7,3,5,12,12,9,3
1481268180140184,-5,-7,-4,-3,-19,-3,-6,-7
1481268180140184,11,12,9,17,0,7,9,7
1481268180147077,6,5,2,-1,5,-4,1,-1
1481268180147077,-16,-21,-16,-14,-15,-10,-9,-9
1481268180164079,-6,-4,-4,-9,-7,-5,-6,-2
1481268180164079,3,7,2,4,18,7,7,2
1481268180170078,-8,-13,-7,-17,0,-8,-6,-5
1481268180170078,-7,-4,-6,0,-7,-6,-3,-8
1481268180185597,12,12,13,12,15,10,3,12
1481268180185597,-5,-4,2,-1,8,-12,1,-3
1481268180186651,-14,-12,-13,-14,-25,-10,-10,-5
1481268180186651,7,10,9,8,5,9,4,9
1481268180199643,5,2,3,10,13,5,9,6
1481268180199643,-13,-8,-12,-4,-13,-8,-8,-8
1481268180207644,2,3,-1,1,-2,2,3,4
1481268180207644,7,13,10,10,27,5,2,4
1481268180222684,-6,-8,-3,-9,-1,-10,-8,-15
1481268180222684,-5,-6,-10,-13,-11,-6,-6,-5
1481268180230649,8,7,2,2,4,9,5,2
1481268180230649,-8,-15,-12,-11,1,-3,-3,-4
1481268180245646,-11,-13,-9,-11,-27,-3,-3,-4
1481268180245646,9,10,3,1,4,6,3,3
1481268180246682,9,10,12,11,13,2,0,3
1481268180246682,-6,0,1,3,-4,-11,0,-6
1481268180259646,6,3,4,8,1,4,7,7
1481268180259646,12,5,6,8,18,1,4,2
1481268180267647,-8,-8,-2,4,-7,-1,-3,-9
1481268180267647,-4,-11,-9,-14,-9,-5,-6,-4
1481268180282721,2,-6,-5,-18,-6,-6,-5,-3
1481268180282721,-5,-1,-3,-10,-1,-4,-2,-3
1481268180290334,-7,-13,-5,-7,-5,-7,-6,-5
1481268180290334,6,12,5,-1,7,3,0,4
1481268180305330,3,7,9,9,12,1,2,5
1481268180305330,0,6,6,14,11,1,2,1
1481268180306334,8,6,5,7,1,2,7,6
1481268180306334,4,1,2,-5,-5,-3,-2,-5
1481268180319331,-5,-6,-3,4,-7,4,1,1
1481268180319331,-11,-5,-5,-7,-8,-2,-3,-6
1481268180327338,-3,1,-7,-11,-2,-3,0,-1
1481268180327338,-5,-3,-4,-5,-1,-2,-6,-7
1481268180342336,-10,0,-8,-4,-4,-3,-8,-7
1481268180342336,5,-4,-4,-4,4,1,4,-3
1481268180350336,0,-2,-2,-3,6,2,5,-1
1481268180350336,5,1,1,12,9,-2,-3,1
1481268180365333,7,4,6,6,5,4,7,6
1481268180365333,1,2,8,1,-5,-3,1,2
1481268180366334,0,0,-1,4,-7,-2,2,-6
1481268180366334,-1,-2,-4,2,-5,2,-4,-2
1481268180379847,1,1,1,-3,3,0,-2,0
1481268180379847,-5,-8,-6,-9,-7,-2,-2,-1
1481268180387577,-12,-8,-6,-3,-1,-6,-9,-8
1481268180387577,1,-2,4,3,7,6,4,5
1481268180402575,-2,-7,-3,-9,0,-1,1,-5
1481268180402575,-6,-8,-8,-4,-17,-2,-9,-5
1481268180410579,4,2,2,6,7,0,-3,1
1481268180410579,5,5,4,2,1,6,5,4
1481268180424579,-8,-2,-13,-1,2,-8,-6,-4
1481268180424579,4,7,3,9,4,6,4,3
1481268180447577,9,7,11,10,20,8,4,9
1481268180447577,0,0,3,2,-7,-7,1,3
1481268180463582,-4,-8,-4,-3,-12,-4,-6,-12
1481268180463582,7,-2,4,1,3,6,4,3
1481268180465579,-8,-3,-2,-11,-10,-8,-6,-8
1481268180465579,-20,-10,-15,-18,-29,-10,0,-20
1481268180486089,-1,3,-9,-7,6,-7,-10,-6
1481268180486089,6,7,13,12,15,-3,2,2
1481268180487809,-7,-13,-10,-10,-5,-7,-3,-8
1481268180487809,2,-2,-1,7,6,2,5,2
1481268180492888,19,17,17,21,24,6,13,13
1481268180492888,8,4,8,14,-3,7,1,8
1481268180499874,-8,-12,-9,-10,-15,-3,-4,-1
1481268180499874,10,7,8,0,3,7,3,1
1481268180507890,-1,-3,-2,-5,-3,-1,1,-4
1481268180507890,-19,-19,-13,-21,-25,-9,-3,-6
1481268180508812,-5,1,-12,-12,-4,-7,-6,-8
1481268180508812,3,8,8,6,16,-2,3,2
1481268180537814,-5,-6,0,-5,-4,-1,-6,-5
1481268180537814,0,2,-1,0,5,0,3,3
1481268180545814,6,14,14,17,17,11,12,7
1481268180545814,0,6,8,16,0,2,6,7
1481268180568816,-4,-15,-11,-10,-16,-2,-7,-9
1481268180568816,4,3,-3,-4,3,0,-2,1
1481268180569817,-3,-2,-1,-1,-2,3,3,0
1481268180569817,-9,-20,-11,-10,-12,-9,-3,-9
1481268180576326,-3,-1,-6,-9,-2,-5,0,-3
1481268180576326,3,0,0,1,9,5,-4,2
1481268180577825,-1,-3,-1,-1,-6,-3,-6,-6
1481268180577825,0,-2,-6,-9,2,1,-9,5
1481268180597149,6,9,6,8,11,21,-2,4
1481268180597149,2,5,7,7,1,-4,9,-6
1481268180606075,1,-3,-3,1,-13,2,-6,3
1481268180606075,0,2,0,-5,6,13,2,7
1481268180614101,0,0,6,1,-1,5,-9,-5
1481268180614101,-6,-3,-7,2,1,-14,-1,-8
1481268180614101,-2,-5,-3,-5,0,9,2,0
1481268180614101,1,-1,-1,-3,6,-7,6,-1
1481268180628078,-10,-15,-11,-8,-8,-1,-5,-8
1481268180628078,-6,-6,-8,-7,1,-15,-1,3
1481268180629068,3,6,1,-7,4,5,2,-5
1481268180629068,-2,-1,-1,-2,5,-5,-12,-4
1481268180657071,0,-3,-3,2,-6,-7,1,4
1481268180657071,11,14,19,9,14,9,0,2
1481268180666074,7,3,10,9,2,3,2,-4
1481268180666074,-5,-3,-3,6,-10,-2,-5,1
1481268180681680,8,4,10,2,-2,-5,10,8
1481268180681680,-3,0,0,1,2,3,0,-1
1481268180682168,-18,-15,-17,-17,-20,-14,-9,-10
1481268180682168,3,-2,-5,-11,0,7,-10,-6
1481268180704337,-1,0,0,-1,6,-12,7,4
1481268180704337,-12,-11,-16,-19,-2,-6,-5,-9
1481268180705256,1,-2,-3,2,3,-7,0,3
1481268180705256,11,14,15,16,30,9,11,8
1481268180726284,-3,3,6,12,1,2,1,1
1481268180726284,2,-2,1,2,-12,0,-4,-1
1481268180727265,14,11,12,11,1,9,6,12
1481268180727265,1,1,2,3,-3,-2,4,1
1481268180747261,-21,-5,-11,-15,-21,-14,-12,-10
1481268180747261,-2,-2,-3,-8,7,3,0,-3
1481268180758324,0,4,2,-2,10,-7,6,3
1481268180758324,-14,-11,-16,-16,-12,-11,-6,-12
1481268180763261,-2,-4,-1,-3,5,-2,-5,-2
1481268180763261,17,13,11,10,17,7,1,9
1481268180771262,2,0,4,7,0,-4,0,4
1481268180771262,0,-8,-6,-7,-15,-5,-7,-13
1481268180772295,12,12,11,14,8,6,8,4
1481268180772295,2,3,7,11,0,0,-1,0
1481268180772804,-12,-13,-14,-6,-12,-9,-6,-10
1481268180772804,-2,-1,2,-2,2,0,-5,5
1481268180784808,4,9,0,2,8,5,5,4
1481268180784808,-11,-11,-11,-9,-8,-3,-4,-10
1481268180793409,-10,-8,-8,-7,-6,-2,-14,-5
1481268180793409,7,13,7,10,12,3,10,8
1481268180808377,-4,-8,-3,-1,0,-2,-3,-2
1481268180808377,-8,-11,-8,-7,-14,-2,-2,-6
1481268180808377,8,10,4,4,8,2,-2,4
1481268180808377,3,2,7,9,12,3,4,6
1481268180822424,-10,-7,-7,-3,-7,-4,-3,-6
1481268180822424,0,5,-1,3,0,2,3,-3
1481268180829343,4,7,8,8,9,6,7,0
1481268180829343,-8,-9,-4,-3,-13,-2,-6,-8
1481268180844353,-6,-12,-13,-11,-12,-2,-5,-3
1481268180844353,5,4,6,-6,4,-2,3,5
1481268180853407,-6,-5,-6,-11,1,-2,-1,-8
1481268180853407,-8,-9,-11,-12,-9,-9,-5,-5
1481268180868408,6,10,-1,3,10,-6,-6,0
1481268180868408,2,10,6,8,8,7,-1,5
1481268180868408,-2,0,1,10,2,-1,-2,2
1481268180868408,12,10,8,6,1,5,7,3
1481268180882360,6,5,4,5,6,4,6,11
1481268180882360,-12,-12,-4,2,-16,1,-4,-4
1481268180889619,-2,-5,-8,-10,-4,-8,1,-7
1481268180889619,-1,-7,-8,-16,6,2,-3,-1
1481268180904609,-9,-11,-13,-14,-5,0,-3,-12
1481268180904609,-7,-5,-15,-8,-11,-5,-2,-1
1481268180912532,8,0,2,-2,9,-2,2,5
1481268180912532,2,4,-1,9,-2,7,1,3
1481268180927537,3,7,6,11,4,0,-1,3
1481268180927537,11,4,7,6,5,5,3,0
1481268180928531,-1,10,13,3,-5,2,3,1
1481268180928531,-2,-3,-2,4,-6,-2,-4,-7
1481268180942613,1,-4,-1,0,-6,-4,0,2
1481268180942613,2,-5,-2,-8,4,-1,-1,3
1481268180949600,-8,-4,-7,-8,-5,-2,-6,-7
1481268180949600,-8,-3,-4,-4,-5,-1,-5,-6
1481268180964535,10,-2,2,-1,6,5,8,3
1481268180964535,-1,5,-1,-3,-7,-1,-2,-5
1481268180973128,-6,1,-4,-4,-5,2,-3,-3
1481268180973128,3,12,5,7,3,-8,4,4
1481268180996682,5,0,-1,2,5,8,1,0
1481268180996682,-7,-9,-8,-6,-1,-20,-1,-3
1481268180996682,1,4,-6,7,2,0,8,-3
1481268180996682,11,3,7,-1,20,-3,0,2
1481268181002729,-9,-7,3,-4,-5,-5,-5,-7
1481268181002729,-6,-2,-4,4,-3,2,-8,-8
1481268181009781,3,-4,-3,0,8,11,-3,3
1481268181009781,-7,-9,-1,-10,-7,-4,7,-4
1481268181024750,-9,-5,-10,-12,-21,-9,0,-19
1481268181024750,6,-5,0,-6,11,1,3,-2
1481268181040747,13,2,11,9,7,-7,10,2
1481268181040747,-11,-5,-3,-4,-18,-5,-6,-3
1481268181047669,7,7,3,3,5,28,-21,5
1481268181047669,3,9,16,14,24,8,6,4
1481268181048670,7,-1,3,12,-9,-15,3,-4
1481268181048670,-11,-7,-11,-12,-8,-23,0,-3
1481268181062701,5,7,4,8,6,16,11,6
1481268181062701,-1,-12,-10,-7,0,2,-13,-2
1481268181069681,-11,-14,-12,-20,-13,-6,-17,-2
1481268181069681,1,-8,-12,-19,7,-8,-1,-5
1481268181084684,7,7,14,4,-6,-25,7,-3
1481268181084684,-11,-3,-8,-1,-11,-7,6,-2
1481268181093292,0,4,-1,-5,8,15,-5,2
1481268181093292,6,21,12,12,17,-3,-6,8
1481268181108269,-6,6,6,18,-2,7,-10,2
1481268181108269,-3,-14,-14,-12,-6,-1,-5,-1
1481268181109231,5,3,-1,-1,6,-14,12,3
1481268181109231,-6,-3,-3,9,-22,-7,4,-6
1481268181122205,-8,-20,-13,-22,-10,0,-3,-8
1481268181122205,3,2,-4,-17,-4,-14,6,-5
1481268181130233,-3,7,5,8,-2,0,5,0
1481268181130233,-6,0,-1,1,-1,1,-2,-7
1481268181145318,2,-1,-1,-2,16,-21,8,1
1481268181145318,9,14,7,8,6,-9,3,-1
1481268181153291,6,0,5,13,-4,19,-2,-1
1481268181153291,1,-13,-5,-7,-7,-10,-2,0
1481268181168353,0,3,3,3,3,8,1,3
1481268181168353,-8,-3,3,0,-7,10,-9,-4
1481268181169353,-12,-6,-6,-6,-10,-2,-11,-6
1481268181169353,-5,-7,-9,0,2,13,-5,4
1481268181182339,1,6,-4,4,-2,7,8,4
1481268181182339,-5,-10,-1,0,-17,-3,-17,2
1481268181189899,3,1,1,-4,1,-3,-1,-2
1481268181189899,7,2,7,1,0,9,2,5
1481268181204897,-2,0,-1,3,-4,-10,-2,-5
1481268181204897,1,-2,-1,1,4,-1,2,-2
1481268181212898,9,7,7,4,8,3,1,6
1481268181212898,4,2,1,0,1,7,-1,-2
1481268181227901,-5,2,-10,-5,-3,-9,-10,-4
1481268181227901,3,2,4,4,5,1,4,1
1481268181228896,0,-3,-1,-3,-7,1,-3,6
1481268181228896,-11,-16,-14,-13,-12,2,-8,-9
1481268181241895,-5,-5,-9,-10,-1,-5,0,-2
1481268181241895,-1,3,2,-2,-6,5,1,-3
1481268181249896,-11,-8,-12,-13,-12,-4,0,-6
1481268181249896,-4,-5,-3,2,1,-6,-3,-4
1481268181264901,8,10,11,14,15,7,2,7
1481268181264901,4,7,6,7,0,4,-1,5
1481268181273441,-8,-4,2,2,-1,-3,-7,-7
1481268181273441,11,12,13,14,10,4,-2,5
1481268181287909,-3,-3,3,3,2,0,7,5
1481268181287909,-12,-14,-16,-18,-19,-5,-3,-8
1481268181295418,-3,-5,-6,-8,-1,-7,-3,-3
1481268181295418,3,7,1,-1,0,5,5,1
1481268181302418,-5,-13,-9,-18,-14,1,0,-1
1481268181302418,-5,-5,-8,-3,1,-7,-1,-8
1481268181309419,13,12,14,14,13,3,5,10
1481268181309419,5,8,7,9,3,9,6,6
1481268181324487,-4,-3,-7,-2,-5,-9,-5,-8
1481268181324487,10,18,15,20,21,3,4,4
1481268181333483,0,3,3,5,2,8,6,5
1481268181333483,-9,-11,-12,-16,-17,1,-2,-1
1481268181347421,-7,-3,-2,-8,-8,-8,-12,-8
1481268181347421,9,1,2,4,2,3,-3,4
1481268181355421,-5,-5,-12,-13,-11,-9,1,-5
1481268181355421,-5,-7,-5,-4,-9,-10,-10,-7
1481268181370421,7,11,12,16,14,6,9,5
1481268181370421,1,-1,-1,-7,-3,8,0,3
1481268181371422,-4,-8,-7,-7,-11,1,-2,-6
1481268181371422,3,5,7,4,6,-1,-1,2
1481268181384934,8,5,7,6,6,9,5,6
1481268181384934,-11,-9,-11,-9,-13,-8,-2,-6
1481268181393505,-1,1,2,5,6,-7,-6,-6
1481268181393505,10,9,10,4,4,2,2,4
1481268181407440,-4,-6,-6,-12,-12,2,-4,-6
1481268181407440,-7,-9,-9,-11,-9,-11,-4,-4
1481268181415444,5,2,4,3,7,3,0,8
1481268181415444,-2,-6,-6,-12,-9,0,1,-5
1481268181430444,-9,-6,-7,-7,-8,-1,-2,-8
1481268181430444,1,5,3,2,12,2,-3,3
1481268181431442,5,8,8,1,-2,2,2,3
1481268181431442,-3,-7,-4,-3,3,2,0,-1
1481268181444442,-1,3,4,8,8,-7,2,3
1481268181444442,8,11,6,7,5,5,1,4
1481268181452443,-4,-9,-4,-2,-13,13,-5,0
1481268181452443,-6,-11,-11,-8,-5,-12,-4,-4
1481268181467448,6,-2,-3,-3,-4,3,-3,6
1481268181467448,-2,-4,3,-5,-9,5,-1,-3
1481268181476015,-5,-3,-11,-7,3,-11,-9,-6
1481268181476015,0,8,1,-1,0,1,1,1
1481268181490021,6,3,5,3,1,4,10,4
1481268181490021,-2,3,6,5,-3,2,-4,-2
1481268181491009,2,6,9,14,8,3,4,2
1481268181491009,-1,9,7,9,7,8,5,1
1481268181505008,0,-1,-1,-1,1,-3,-4,-1
1481268181505008,-6,-8,-8,-1,-3,-10,-8,-2
1481268181513006,-4,-8,-2,-9,-6,1,2,2
1481268181513006,-7,-2,-7,-8,-10,0,-4,-7
1481268181527015,-5,-6,-8,-11,-6,-5,-9,-8
1481268181527015,1,2,-4,0,-2,-5,1,0
1481268181536047,1,-3,1,-2,5,5,2,-1
1481268181536047,2,-1,2,6,1,-4,-1,-1
1481268181551040,4,16,9,11,3,0,-2,1
1481268181551040,3,5,5,2,10,1,3,-2
1481268181551040,-2,-6,-4,0,2,-1,-1,-3
1481268181551040,-2,-2,-3,6,4,-11,1,-3
1481268181565013,-1,1,-2,1,-7,10,0,2
1481268181565013,-8,-9,-5,-11,2,2,-3,-3
1481268181580546,-4,-1,-6,-2,-23,-21,2,-11
1481268181580546,8,4,3,4,12,18,8,1
1481268181587551,-5,-7,-7,-9,1,-13,-1,-1
1481268181587551,-10,-1,-8,-3,-16,18,-15,-3
1481268181595505,7,-4,-7,-6,15,1,4,5
1481268181595505,-2,-1,6,5,-13,-1,-2,3
1481268181610511,-14,2,-1,1,-18,13,-14,-11
1481268181610511,6,-3,1,0,16,1,16,6
1481268181611507,9,11,12,15,-13,7,8,3
1481268181611507,-7,6,5,7,-3,-18,20,-5
1481268181624588,-5,-13,-10,-13,11,11,-9,1
1481268181624588,4,5,1,4,5,29,-21,1
1481268181633511,-13,-2,-5,-3,-10,14,14,-4
1481268181633511,0,-25,-13,-24,1,-34,8,-5
1481268181647529,-1,1,-5,-3,-15,-17,6,-8
1481268181647529,-1,17,9,13,3,1,11,1
1481268181655590,-3,-18,-11,-17,3,-7,-15,-2
1481268181655590,2,12,1,8,-10,6,-9,-5
1481268181670590,7,7,8,11,19,6,5,3
1481268181670590,5,0,5,4,6,-1,2,3
1481268181671517,-15,-5,-3,-4,-14,-12,-5,-2
1481268181671517,-2,0,5,3,5,13,1,7
1481268181685025,-4,-2,-1,-5,5,-8,3,-4
1481268181685025,-10,-15,-13,-14,-24,-24,5,-10
1481268181693596,-5,-5,-7,-6,-2,0,-13,-4
1481268181693596,1,9,6,6,20,13,0,3
1481268181707653,-4,-8,-3,-6,-6,-4,4,3
1481268181707653,7,-1,0,0,-7,-12,0,2
1481268181715578,7,11,13,15,14,9,6,9
1481268181715578,4,1,1,10,6,15,-6,4
1481268181730657,-4,-8,-9,-6,-10,-12,-3,0
1481268181730657,-5,-1,7,1,4,-2,5,0
1481268181731611,1,1,-2,-4,6,0,-6,-5
1481268181731611,-9,-10,-9,-10,-14,-10,-6,-5
1481268181744578,-2,-5,-4,-9,-5,-4,-1,-3
1481268181744578,3,-3,5,2,8,5,5,3
1481268181752586,-4,0,-6,0,-3,-3,-3,-4
1481268181752586,4,-1,2,1,-2,-1,-10,-5
1481268181776692,10,0,13,3,9,1,7,11
1481268181776692,-4,7,3,9,2,6,3,-2
1481268181777163,-3,-6,-4,0,2,-6,-5,-4
1481268181777163,5,7,5,1,5,4,6,6
1481268181790539,2,5,1,4,2,13,-2,0
1481268181790539,-5,-10,-8,-5,-4,-3,-1,-4
1481268181791509,2,-4,-4,-1,-2,4,2,0
1481268181791509,1,-1,0,-4,4,1,0,-1
1481268181804588,-5,-14,-5,-10,-12,-8,-8,-9
1481268181804588,1,-6,-3,-1,-12,-7,5,-1
1481268181812577,-4,3,-1,-4,5,0,2,3
1481268181812577,-2,-2,-5,-4,-7,0,3,-5
1481268181827520,-5,-2,-8,2,2,1,-6,4
1481268181827520,12,6,13,7,11,-11,-2,-2
1481268181835513,-2,4,10,5,2,4,1,1
1481268181835513,-8,-6,-8,-6,-5,-10,-1,-4
1481268181850594,4,9,7,8,9,11,0,1
1481268181850594,0,1,1,-3,0,-5,3,-1
1481268181851513,-5,-5,-3,-12,-15,-11,-9,-5
1481268181851513,-5,-3,-6,-7,-8,-4,-9,-1
1481268181864519,-2,5,-2,-1,2,-8,10,4
1481268181864519,-8,-14,-10,-19,-17,2,-13,-3
1481268181873024,1,5,-6,-3,-1,-4,-12,-4
1481268181873024,7,16,16,18,11,5,0,3
1481268181887526,4,1,9,11,7,1,4,5
1481268181887526,-6,2,-3,1,-5,-3,-6,-4
1481268181895578,12,7,14,20,14,11,7,9
1481268181895578,0,0,1,-1,4,4,0,2
1481268181910586,-10,-15,-15,-15,-16,-13,-13,-6
1481268181910586,-7,-2,-3,-6,-4,-5,-7,0
1481268181911582,4,-2,4,3,2,2,6,1
1481268181911582,-5,-14,-11,-18,-17,-8,0,-7
1481268181926585,0,-2,-3,-3,-7,-4,-7,-6
1481268181926585,9,10,12,9,8,7,3,7
1481268181940665,1,-2,0,4,4,1,1,2
1481268181940665,-3,-10,-5,-4,-2,0,-12,-4
1481268181947585,6,13,13,14,6,1,5,4
1481268181947585,7,6,7,9,8,9,1,5
1481268181955583,-8,-13,-13,-16,-19,-13,-4,-5
1481268181955583,3,-3,-1,4,-5,3,-9,0
1481268181970665,3,1,5,2,7,3,1,-2
1481268181970665,-9,-12,-12,-6,-5,-6,-3,-4
1481268181971621,-9,-12,-1,-6,-4,-7,-2,-6
1481268181971621,8,7,9,9,11,4,6,6
1481268181985098,-1,-3,-2,-2,1,-2,2,4
1481268181985098,-4,-13,-12,-6,-4,-14,-1,-8
1481268181992724,4,4,10,9,10,3,2,2
1481268181992724,-4,12,8,8,5,4,4,-3
1481268182007704,-5,-6,-8,-5,-9,-2,-2,-5
1481268182007704,0,2,1,5,9,-3,5,3
1481268182015637,4,8,5,0,11,-3,-1,4
1481268182015637,-5,-9,-3,-7,-7,-1,-6,2
1481268182030718,-6,-11,-10,-5,-13,-8,-7,-5
1481268182030718,6,5,4,0,-3,0,2,4
1481268182031672,-6,-5,-8,-7,-14,0,2,-3
1481268182031672,-8,-11,-8,-5,-4,4,-6,-7
1481268182053640,5,5,3,-2,0,-1,2,3
1481268182053640,4,1,8,0,4,4,4,-3
1481268182053640,-1,3,-1,3,2,-3,-3,-9
1481268182053640,5,10,8,9,6,3,-2,7
1481268182076270,0,5,9,11,9,13,5,-6
1481268182076270,-6,-6,-8,1,3,-1,-1,-2
1481268182077269,1,-5,-5,-5,-3,-14,-1,-4
1481268182077269,-1,-5,-8,-5,-9,-1,2,-4
1481268182091011,-5,-12,-7,-15,-7,-3,-1,1
1481268182091011,-3,-3,-7,-7,-8,-6,-2,-4
1481268182091011,4,3,3,-1,-5,-2,2,-1
1481268182091011,-2,-2,4,4,1,-5,11,1
1481268182105981,-1,4,0,2,2,5,-4,-3
1481268182105981,7,9,11,12,2,-2,0,0
1481268182112981,2,7,4,7,9,13,-4,3
1481268182112981,-7,-2,-4,-5,-4,-10,6,-3
1481268182126986,6,-2,0,-3,-4,-4,-2,-5
1481268182126986,-3,-5,0,-7,-4,-2,-4,7
1481268182143086,-9,-7,-7,-9,-5,7,-5,-4
1481268182143086,-2,-5,-6,-8,-9,-5,-14,-3
1481268182151042,1,10,7,4,-4,5,-4,3
1481268182151042,-1,4,-4,-4,-6,5,-7,-1
1481268182151042,-5,-6,-1,-1,0,-2,2,-5
1481268182151042,6,6,11,4,6,5,2,2
1481268182164984,3,-2,-3,2,10,-8,7,2
1481268182164984,-3,-11,-5,-7,-1,7,-1,-9
1481268182173064,2,0,3,8,3,-8,-6,5
1481268182173064,-1,1,5,3,8,-2,3,0
1481268182187579,0,-8,-5,-2,-3,2,2,-2
1481268182187579,-3,-6,-5,-4,-12,-4,-7,-6
1481268182195585,5,8,10,7,1,2,10,2
1481268182195585,-1,-5,-9,-11,-9,-9,1,1
1481268182210590,-8,-8,-7,-11,-6,-9,-9,-9
1481268182210590,2,0,-1,-1,-6,-3,1,1
1481268182211653,2,-1,5,4,2,9,-3,5
1481268182211653,-1,-5,-5,-9,-10,-7,-5,-2
1481268182224589,0,8,5,6,0,5,-2,2
1481268182224589,12,9,5,13,6,0,12,-4
1481268182232587,-5,4,2,0,8,3,-5,-7
1481268182232587,-7,-7,-14,-10,-8,-4,-11,-4
1481268182247618,7,0,9,7,6,-4,12,0
1481268182247618,-8,-6,-3,-9,1,9,2,2
1481268182255591,-12,-3,-19,-18,-21,-21,-16,-4
1481268182255591,0,-4,0,-5,-8,-5,0,-4
1481268182270656,6,-9,5,7,4,13,2,1
1481268182270656,-8,-1,-7,-7,-2,-18,-2,-8
1481268182271684,7,4,1,3,2,4,3,0
1481268182271684,3,10,12,18,15,0,9,6
1481268182285106,-5,11,3,8,9,0,2,0
1481268182285106,-5,-3,-2,-5,-10,-11,-9,-3
1481268182292610,0,4,5,2,1,4,5,1
1481268182292610,3,-1,1,0,3,1,-2,-4
1481268182307611,-9,-5,-11,-13,-13,-10,-6,-4
1481268182307611,-5,-4,-5,-7,-9,-10,-9,-6
1481268182315636,8,3,0,3,7,12,1,1
1481268182315636,-4,-5,-1,0,-3,-14,6,-4
1481268182329616,4,-6,-1,4,-1,3,-5,0
1481268182329616,4,2,5,10,15,8,1,5
1481268182337613,-1,5,3,7,2,10,-4,1
1481268182337613,-4,-3,-7,3,-9,1,-5,-1
1481268182344619,4,10,8,3,-10,4,-3,-1
1481268182344619,-5,3,-1,1,5,6,5,4
1481268182352619,-11,-10,-9,-10,-18,0,-8,-4
1481268182352619,8,-13,4,-2,-15,-2,1,2
1481268182367619,1,-1,-1,-5,21,19,1,7
1481268182367619,-7,4,-2,-9,-9,-11,-9,1
1481268182375623,0,2,0,3,-11,-24,12,1
1481268182375623,7,-3,-3,-1,22,30,-2,-1
1481268182389625,-5,13,-3,-3,8,-28,-4,0
1481268182389625,-11,9,0,11,-13,-2,-4,-5
1481268182405636,3,-1,-2,0,16,15,-11,4
1481268182405636,-4,11,0,0,18,5,-3,-1
1481268182412637,-8,-3,-3,-1,-4,-21,5,-11
1481268182412637,11,1,4,3,-6,15,-7,8
1481268182413637,-3,-5,-2,-1,3,0,4,1
1481268182413637,-6,-16,-6,-12,-23,-8,1,-4
1481268182427638,-2,-6,-1,-5,-15,14,-21,-2
1481268182427638,5,-3,0,-5,-1,-2,0,-2
1481268182435647,6,-17,-3,-10,-19,-13,13,-4
1481268182435647,7,-3,-2,-1,-8,12,-16,-3
1481268182449695,4,11,5,9,13,-6,4,7
1481268182449695,6,-2,8,4,4,2,13,1
1481268182458675,1,-8,3,-1,1,20,-9,-3
1481268182458675,4,18,11,9,9,-4,-3,3
1481268182472638,-3,1,0,1,-20,-9,3,1
1481268182472638,-2,-12,-12,-14,-6,4,-8,-12
1481268182473639,-2,-5,-7,-13,-7,-22,1,-6
1481268182473639,1,1,0,1,-10,3,-1,1
1481268182487712,-7,-9,-13,-21,-9,-4,0,-3
1481268182487712,2,-6,-5,-6,-1,-7,-7,0
1481268182495659,8,10,12,15,15,4,5,6
1481268182495659,1,0,4,5,12,1,4,3
1481268182510724,-1,-7,-9,-3,-10,-6,-3,-5
1481268182510724,2,11,12,14,6,8,3,2
1481268182517730,-1,9,4,11,12,2,3,4
1481268182517730,-6,-10,-10,-14,-5,-10,-7,0
1481268182532677,3,-2,3,-5,-4,1,-4,-3
1481268182532677,1,1,3,0,11,0,2,2
1481268182533661,-6,-7,-9,-16,-14,-5,-5,-4
1481268182533661,-4,-3,-8,-7,-14,-8,-1,-3
1481268182547725,5,12,9,13,11,7,3,7
1481268182547725,1,-2,-2,0,1,1,-1,2
1481268182555663,-3,-6,-11,-8,-11,-18,-3,-3
1481268182555663,1,4,4,8,7,3,4,5
1481268182569666,1,6,1,5,9,4,3,1
1481268182569666,-9,-12,-13,-14,-14,-8,-2,-4
1481268182578175,-1,-1,3,5,-6,-1,1,2
1481268182578175,-4,4,3,1,6,12,0,5
1481268182593218,-7,-13,-5,-9,-9,-3,-6,-2
1481268182593218,-4,-10,-7,-7,-11,-8,-9,-7
1481268182594271,4,12,2,0,2,-9,8,-1
1481268182594271,-4,-4,-4,-10,-7,-11,2,-9
1481268182607215,-2,-10,-9,-8,-8,-7,-4,-1
1481268182607215,0,8,5,6,5,1,-2,1
1481268182615216,1,3,6,6,10,7,-2,5
1481268182615216,-4,-8,-4,-1,-4,-3,-2,-3
1481268182630278,1,9,7,10,5,2,5,7
1481268182630278,3,-2,4,11,11,-1,13,0
1481268182638294,0,-7,-5,-3,-6,1,-4,-5
1481268182638294,-4,-8,-11,-5,-6,-10,-5,1
1481268182661217,-1,2,7,-6,-10,-1,1,-3
1481268182661217,-1,-8,-7,-12,-6,1,0,-7
1481268182662216,-1,-4,-5,-3,-8,-17,-5,-8
1481268182662216,0,8,2,1,4,-6,1,-5
1481268182667221,3,-4,5,4,6,0,5,0
1481268182667221,1,0,0,10,4,-2,1,1
1481268182675801,6,-1,5,7,4,2,1,-2
1481268182675801,5,1,5,4,1,5,0,-1
1481268182689814,-5,-5,-6,-1,-3,-13,0,-5
1481268182689814,-6,3,1,-2,-3,1,-9,-3
1481268182697811,0,-3,-1,-7,-7,8,0,2
1481268182697811,0,-5,-8,-8,-7,-1,-7,0
1481268182712811,-4,-1,-1,1,-4,-3,-3,-4
1481268182712811,7,4,3,2,-1,6,-2,-6
1481268182713810,2,0,-2,-5,-2,-2,0,-4
1481268182713810,-3,4,6,9,2,-5,1,1
1481268182728813,6,0,0,4,-1,7,1,-4
1481268182728813,5,0,0,1,6,1,0,4
1481268182735893,-5,1,-5,-1,0,4,-3,1
1481268182735893,-2,5,-3,2,0,0,-3,-3
1481268182749826,9,-1,3,2,-4,5,3,3
1481268182749826,-3,-5,-5,-5,-3,-6,0,-2
1481268182757892,-1,-9,-6,-8,2,-2,0,-3
1481268182757892,2,-3,0,2,-1,1,3,4
1481268182772814,-7,-9,-3,-7,-6,-6,1,4
1481268182772814,-5,-5,0,-7,-8,-4,-5,-4
1481268182773813,1,4,5,0,5,2,-4,1
1481268182773813,1,3,1,-3,-5,3,6,4
1481268182787328,-6,-3,-9,-16,-8,-11,-3,-3
1481268182787328,-2,-1,4,5,-6,4,-1,5
1481268182795838,-1,-1,0,9,15,9,4,1
1481268182795838,-4,-2,0,-3,5,1,0,4
1481268182809842,-2,1,-6,-5,-7,-3,-9,-7
1481268182809842,7,5,6,6,5,0,-1,2
1481268182817835,4,2,-1,-7,-10,4,-5,1
1481268182817835,-2,-10,-9,-14,-17,-6,-10,-8
1481268182832857,-2,-2,-1,-5,1,2,-1,0
1481268182832857,3,8,3,5,10,4,3,-1
1481268182833836,-9,-10,-9,-8,-11,-7,4,-3
1481268182833836,-4,0,4,11,5,3,2,0
1481268182847903,6,7,15,10,21,8,1,0
1481268182847903,-2,7,-1,6,5,1,5,4
1481268182855881,-5,-2,-8,-2,-11,-8,-9,-4
1481268182855881,5,2,6,1,7,6,0,2
1481268182869919,0,-2,-3,-4,-6,-4,3,-1
1481268182869919,-7,-10,-13,-14,-21,-9,-4,-5
1481268182878452,0,-4,0,-8,-6,-4,-8,-4
1481268182878452,6,6,6,3,9,6,-9,0
1481268182893499,-2,-2,-7,-6,-8,6,-4,-2
1481268182893499,-2,-6,-1,2,8,-11,6,0
1481268182893499,1,1,9,12,18,-4,17,2
1481268182893499,3,4,3,12,5,-1,8,2
1481268182907555,-2,-3,-5,-3,-2,-1,-7,-3
1481268182907555,3,3,6,-2,-1,-5,11,5
1481268182915525,0,-3,0,0,-2,-8,5,4
1481268182915525,-4,-5,-6,-10,-12,-17,8,-4
1481268182938537,-2,-5,0,-6,-1,-6,-5,-2
1481268182938537,2,-3,0,-2,8,3,-3,6
1481268182939463,-4,3,0,-2,-6,-3,-7,-2
1481268182939463,-1,-5,-1,-3,0,-4,-2,0
1481268182961463,5,8,8,5,7,6,3,5
1481268182961463,3,2,1,3,3,8,-6,-1
1481268182961463,-4,-6,-6,-1,-6,-4,-5,-2
1481268182961463,3,3,3,-1,4,6,-4,-1
1481268182967540,6,0,-3,2,-2,-3,2,1
1481268182967540,-14,-6,-7,-5,-13,-4,-3,-5
1481268182975553,3,3,3,0,-3,0,-1,-2
1481268182975553,3,4,-1,-4,-2,3,0,-2
1481268182990067,-2,-4,-7,-5,-10,-4,-5,-3
1481268182990067,-5,-1,-3,-5,-9,-10,-6,-7
1481268182998140,2,0,0,1,-6,9,2,8
1481268182998140,1,-3,-3,-6,-2,0,-1,-1
1481268183013064,-5,0,-4,-1,4,0,-2,-6
1481268183013064,6,7,7,9,12,8,-2,0
1481268183014075,5,1,3,4,2,4,-4,-2
1481268183014075,-2,-6,0,7,-3,0,2,-1
1481268183027072,5,4,6,8,4,-1,-2,-1
1481268183027072,0,3,1,-2,0,8,5,3
1481268183035092,-9,-10,-10,-15,-19,-13,-10,-7
1481268183035092,-2,1,-7,-6,-4,-10,-9,-4
1481268183050143,-1,-6,1,-2,-1,0,3,1
1481268183050143,-1,-9,-7,-11,-6,-9,-4,-6
1481268183058068,1,1,-4,-2,-4,-4,-11,-6
1481268183058068,3,8,8,14,16,13,1,6
1481268183073066,3,2,0,8,6,6,1,4
1481268183073066,-7,-5,-1,-2,-4,-8,-7,-4
1481268183074065,5,6,11,15,14,9,6,1
1481268183074065,1,4,-1,3,6,3,8,6
1481268183087580,-10,-8,-14,-10,-23,-12,-5,-6
1481268183087580,-1,-4,-1,-4,-10,-7,-1,0
1481268183095616,0,4,-2,-2,5,5,3,1
1481268183095616,-8,-13,-8,-17,-16,-9,0,-6
1481268183109617,-5,-4,-3,-3,2,-6,-9,-3
1481268183109617,8,10,3,15,17,6,8,10
1481268183117696,-1,6,0,6,8,8,1,3
1481268183117696,-3,-2,-2,-4,-7,-4,-6,0
1481268183132697,5,9,9,8,16,3,3,2
1481268183132697,3,6,1,3,6,7,5,2
1481268183133618,-5,-6,-10,-7,-14,-8,-5,0
1481268183133618,-6,-3,-4,-3,-6,-9,-6,-4
1481268183147680,4,7,7,2,8,8,2,4
1481268183147680,-1,-11,-6,-12,-5,-1,-6,1
1481268183156620,-9,-5,-2,-5,-6,-8,-8,-6
1481268183156620,7,5,7,7,8,3,1,1
1481268183169699,-2,-5,1,-3,-8,1,9,1
1481268183169699,-1,-9,-8,-7,-13,-6,-7,-4
1481268183186755,7,-4,-2,2,15,3,-3,3
1481268183186755,4,-5,0,3,8,12,5,0
1481268183192307,-6,0,-11,-2,-13,8,-7,-4
1481268183192307,-3,2,8,3,-2,-16,2,-4
1481268183201239,4,1,8,3,11,6,10,-2
1481268183201239,-1,-1,-2,1,-12,3,4,-3
1481268183207309,-6,-14,-8,-8,-4,-17,-10,0
1481268183207309,5,-2,0,-1,4,-12,4,2
1481268183216240,-3,0,-5,-6,-10,28,-3,4
1481268183216240,-6,-1,-2,-5,-12,-13,-2,-5
1481268183238246,4,2,3,4,15,-7,-2,-2
1481268183238246,4,7,0,4,10,39,4,0
1481268183240242,-3,-1,5,4,1,11,0,-3
1481268183240242,-5,1,3,4,18,-20,-3,0
1481268183252312,0,0,2,4,-2,14,5,1
1481268183252312,-1,0,-3,0,-9,13,-4,4
1481268183261242,-5,-1,-9,-1,2,-35,-1,-9
1481268183261242,0,2,-1,-9,-6,-6,2,-1
1481268183267245,-2,-4,-6,-15,-22,15,0,-2
1481268183267245,-5,-5,-7,-1,-2,-21,-6,-3
1481268183276765,0,-3,5,1,-2,-6,6,-3
1481268183276765,5,3,3,1,0,24,2,5
1481268183290296,-2,5,0,6,7,5,0,-4
1481268183290296,4,9,9,5,16,-10,4,5
1481268183298310,10,1,7,4,-2,6,1,2
1481268183298310,-3,5,0,3,-4,6,-4,2
1481268183321309,0,-1,-5,2,9,-18,0,-3
1481268183321309,2,1,-3,-7,-3,1,3,-2
1481268183322309,-4,2,-7,-15,-17,6,-7,2
1481268183322309,-5,-5,-6,-7,-2,-6,-5,-6
1481268183336309,3,0,5,0,7,1,1,5
1481268183336309,-4,-4,-2,-4,-9,10,-5,-3
1481268183337309,-5,-1,-2,0,3,-7,-5,-6
1481268183337309,-3,-1,0,5,9,0,4,-2
1481268183350325,4,-1,6,2,-6,-2,2,-1
1481268183350325,-8,-6,-2,-8,-15,-8,-4,-7
1481268183359310,2,2,2,4,9,-4,-1,1
1481268183359310,2,7,1,3,12,9,4,4
1481268183372326,-1,-1,-6,-5,-11,1,-10,-1
1481268183372326,-6,-5,-8,-2,-1,-4,-9,3
1481268183381819,1,3,6,6,10,3,5,5
1481268183381819,-1,-1,0,-8,-12,-7,0,-4
1481268183396332,-2,-9,-4,-8,-11,-10,-11,-3
1481268183396332,2,3,3,1,3,3,0,-2
1481268183398330,6,2,2,2,-1,-3,1,1
1481268183398330,-4,-4,-2,-9,-8,-6,-9,-6
1481268183410334,-7,0,-3,6,4,1,4,0
1481268183410334,7,8,11,12,7,7,6,2
1481268183418331,-1,3,4,11,10,-3,-3,3
1481268183418331,3,-7,-7,-5,-12,-1,-5,-3
1481268183432336,2,4,9,4,11,3,10,0
1481268183432336,2,-8,-7,-6,-12,-11,-4,2
1481268183441334,-9,-4,-15,-19,-26,-17,-7,-8
1481268183441334,-1,-4,-2,-11,-10,0,-2,4
1481268183455333,3,4,0,4,6,-2,5,2
1481268183455333,-7,-7,-2,-8,-2,-7,-3,-3
1481268183462335,-4,-4,2,1,-1,2,4,-2
1481268183462335,9,5,5,15,19,16,2,3
1481268183470367,3,9,5,13,10,-1,3,3
1481268183470367,-4,-3,-7,-6,-5,-5,-5,-8
1481268183478849,3,-1,2,1,-4,4,2,0
1481268183478849,-9,4,0,-1,1,-4,1,0
1481268183493026,-6,-4,-8,-12,-18,-20,-2,-7
1481268183493026,-4,-8,-3,-13,-14,6,-7,-5
1481268183501044,1,6,4,0,6,0,-2,4
1481268183501044,-5,-5,-4,-1,-6,-10,-5,-7
1481268183524025,1,1,-1,-3,-5,7,-7,0
1481268183524025,2,9,11,6,12,5,6,3
1481268183525026,2,8,5,5,13,6,6,2
1481268183525026,-3,-6,-2,-4,-5,-8,-4,-3
1481268183530089,0,3,0,-8,10,9,3,5
1481268183530089,1,-2,-1,1,-1,-2,0,2
1481268183546056,-4,-11,-11,-10,-6,-11,-5,0
1481268183546056,-2,0,-5,-3,-6,-1,-4,-2
1481268183561073,2,0,5,2,4,4,1,0
1481268183561073,-2,0,-4,1,-2,-3,0,0
1481268183563024,-4,-4,0,-2,-10,-4,-5,-3
1481268183563024,4,2,2,3,1,4,3,5
1481268183575133,4,0,-5,0,1,5,4,-1
1481268183575133,0,-6,-5,0,0,-2,-1,1
1481268183584143,0,4,0,3,4,13,0,1
1481268183584143,-3,0,4,-2,5,-1,-3,0
1481268183590149,-5,-7,0,-3,-10,-7,-4,-2
1481268183590149,4,2,0,7,4,-4,3,1
1481268183598503,3,-4,2,-1,-3,4,6,0
1481268183598503,1,-10,-7,-10,-12,-13,-3,-2
1481268183612458,-4,-3,1,-5,-4,-3,-9,-6
1481268183612458,-1,5,3,-3,-8,9,0,1
1481268183621460,-2,-8,-5,-14,-10,-9,-3,4
1481268183621460,0,-2,0,-4,-5,-3,-1,-5
1481268183634541,5,7,7,9,4,14,3,6
1481268183634541,0,-4,-5,4,5,4,5,4
1481268183643495,1,4,0,2,3,-2,-2,-4
1481268183643495,6,3,5,13,12,14,6,5
1481268183649461,-1,-2,-3,0,6,-1,7,5
1481268183649461,-6,-6,-13,-14,-16,-10,-13,-8
1481268183664461,-3,-6,-7,-7,-5,-5,-2,-5
1481268183664461,0,0,4,-1,-3,-1,4,1
1481268183672543,-2,-10,-5,-12,-19,-17,-2,-4
1481268183672543,1,-3,-2,-4,-9,-6,-6,-8
1481268183681480,5,8,8,13,16,15,7,4
1481268183681480,2,1,-1,11,3,0,2,3
1481268183694987,-1,-6,-1,-2,-7,-10,0,-6
1481268183694987,5,6,11,16,15,13,6,-1
1481268183711988,1,3,0,5,4,0,0,2
1481268183711988,-8,-9,-4,-15,-21,-17,-6,-4
1481268183712988,-6,-7,-3,-9,-4,-4,-4,-6
1481268183712988,2,5,2,4,3,6,4,0
1481268183718992,-2,-5,-10,-18,-10,-12,-4,-2
1481268183718992,-5,-3,-2,-2,-8,-2,-11,0
1481268183732056,2,4,2,2,10,7,6,3
1481268183732056,2,4,5,-1,8,-5,8,8
1481268183741039,-7,-9,-4,-2,-19,-3,-8,-3
1481268183741039,1,6,2,1,10,13,2,0
1481268183754996,4,5,6,7,10,2,5,5
1481268183754996,-4,-12,-12,-10,-4,-7,-5,-4
1481268183771026,2,-1,-2,6,0,-1,0,1
1481268183771026,3,-2,1,7,6,4,5,4
1481268183771026,-8,-2,-7,-5,-9,-6,-3,2
1481268183771026,-4,-5,1,-9,-8,-12,-5,-5
1481268183779007,3,-4,2,2,1,10,-3,1
1481268183779007,1,-1,-5,-8,-3,-13,-5,-5
1481268183792562,-2,-7,-1,-6,-16,-4,-11,-6
1481268183792562,-1,0,1,-3,1,6,-1,-3
1481268183801551,5,6,7,4,8,1,4,-2
1481268183801551,-1,-1,0,4,-2,-6,0,-1
1481268183814616,2,0,1,10,10,9,-1,-1
1481268183814616,2,3,2,-1,2,0,-2,-2
1481268183823574,-5,-5,-5,0,1,-6,4,2
1481268183823574,-9,-3,-5,-9,-4,-3,-3,-7
1481268183829592,3,0,6,-2,-5,1,5,3
1481268183829592,-6,0,-4,-5,-7,-10,-4,5
1481268183838565,-10,4,-1,-8,-5,-5,-6,-10
1481268183838565,3,1,4,2,2,1,0,3
1481268183852651,7,-3,-1,3,7,4,8,2
1481268183852651,-4,1,-1,10,7,-6,-1,-4
1481268183861550,0,4,4,6,11,1,7,-2
1481268183861550,6,-3,-1,2,4,10,1,2
1481268183874628,-3,-2,-2,2,-3,-7,-5,2
1481268183874628,-5,0,-1,-2,1,-1,-2,0
1481268183884069,3,0,-1,-7,-11,-5,-1,0
1481268183884069,2,1,-6,-8,-9,-9,4,2
1481268183890072,-6,-2,-7,-3,-9,-7,-7,-1
1481268183890072,2,-3,0,-5,-6,2,0,1
1481268183898935,1,-1,3,5,-3,5,7,3
1481268183898935,-2,0,2,3,3,-2,-3,1
1481268183911930,-1,4,0,7,8,9,-3,-3
1481268183911930,5,-1,4,2,1,7,-1,3
1481268183920996,-3,-3,-2,-3,2,-10,-7,-1
1481268183920996,-6,1,0,3,2,0,-3,-2
1481268183934935,2,3,-4,0,2,6,-2,4
1481268183934935,-4,-5,-5,-6,-9,-1,-4,-4
1481268183943937,-5,-3,-6,-1,0,-8,-1,1
1481268183943937,1,0,1,2,1,6,0,1
1481268183950013,5,-2,2,-6,-3,-9,1,-2
1481268183950013,-3,-1,-5,-4,-7,-2,-6,0
1481268183958939,1,-1,2,-5,1,3,-4,-1
1481268183958939,-2,1,0,3,2,0,3,3
1481268183971938,1,2,-4,-5,-9,-10,-1,-7
1481268183971938,-3,-3,3,5,2,-3,1,-3
1481268183981445,7,3,5,6,14,11,8,0
1481268183981445,-1,-3,-5,-4,-1,3,0,-3
1481268183994484,-5,-6,-5,-5,-13,-9,-6,-8
1481268183994484,2,7,8,8,8,7,0,2
1481268184003539,4,0,1,-7,-1,-3,-2,2
1481268184003539,1,-7,-6,-11,-17,-13,-1,-3
1481268184009489,-6,2,-2,-4,-8,3,0,-4
1481268184009489,6,5,3,4,10,8,11,3
1481268184018518,-7,-3,-5,-4,-8,-4,-7,-1
1481268184018518,2,3,7,4,5,-5,-1,-6
1481268184032510,4,7,9,16,15,12,3,8
1481268184032510,0,2,4,10,9,9,3,5
1481268184057492,-7,1,-4,-6,-19,-10,-11,-8
1481268184057492,1,3,4,9,10,12,4,2
1481268184057492,2,-2,-7,-4,2,-3,7,0
1481268184057492,-3,-2,-8,-13,-24,-16,-4,-5
1481268184071500,0,-4,-7,-13,-11,-8,-3,-6
1481268184071500,2,1,0,2,11,6,2,8
1481268184072488,-3,-1,-8,-5,-8,-4,3,-2
1481268184072488,2,0,-2,-1,2,-6,-4,-1
1481268184079028,0,8,4,9,9,8,5,3
1481268184079028,6,-2,7,12,7,5,7,-1
1481268184092607,-6,-12,-4,-9,-8,-8,-18,-4
1481268184092607,-2,4,-5,3,2,-4,7,2
1481268184108613,1,2,4,3,2,8,6,4
1481268184108613,-7,-7,-10,-12,-16,-17,-8,-9
1481268184114605,-1,-1,-7,-5,-9,-4,-8,-7
1481268184114605,2,5,3,-2,4,-1,1,3
1481268184123619,0,-3,-12,-2,-12,1,0,-2
1481268184123619,-3,-1,0,-5,-3,-1,-3,3
1481268184129609,3,8,4,2,18,4,3,4
1481268184129609,1,-1,-1,6,2,2,5,0
1481268184138608,-4,-9,-3,-2,-3,-9,0,-1
1481268184138608,-2,7,3,0,-8,-3,0,-5
1481268184152611,3,0,9,4,3,0,2,6
1481268184152611,-5,-9,-3,-3,-3,-4,-10,0
1481268184161609,-4,-3,-2,0,-7,-1,1,-4
1481268184161609,3,2,4,-1,12,8,-3,6
1481268184174726,-4,-2,-8,-5,-6,-13,0,-2
1481268184174726,-1,-2,-2,-1,-16,3,-9,-6
1481268184184129,2,0,6,-4,6,-7,1,5
1481268184184129,1,-1,2,2,-8,3,-2,2
1481268184190131,-7,-4,-1,2,5,-2,-6,-2
1481268184190131,3,2,0,4,7,9,5,4
1481268184198990,2,0,0,5,4,12,2,2
1481268184198990,-6,-6,-8,-3,0,-2,-6,-7
1481268184211996,0,0,4,11,-1,10,2,0
1481268184211996,0,1,2,1,-4,-6,8,-5
1481268184221054,2,-5,-2,-9,-14,-5,-12,-1
1481268184221054,-4,-6,-5,-9,-5,-10,-8,-5
1481268184235007,1,3,-1,-5,-2,-4,5,1
1481268184235007,1,-7,-5,-13,-7,-3,-8,-1
1481268184243989,-2,-4,-6,-1,-8,-8,-3,-3
1481268184243989,4,0,3,11,10,1,10,3
1481268184258990,1,3,0,7,14,7,4,9
1481268184258990,-7,-2,-4,-5,-2,-4,-1,-5
1481268184259990,1,5,9,15,13,8,0,-1
1481268184259990,2,7,-2,-3,4,9,2,5
1481268184272058,-3,-8,-9,-12,-20,-14,-5,-13
1481268184272058,-4,-2,-4,-7,-8,-11,-7,-9
1481268184281504,0,5,-2,-2,6,5,5,1
1481268184281504,-4,-2,-6,-17,-22,-9,-6,-2
1481268184296071,-4,-7,-1,-7,-6,-4,-7,-5
1481268184296071,4,7,8,8,14,11,11,2
1481268184304009,1,3,3,9,8,4,12,1
1481268184304009,-3,-5,1,-3,-4,-8,-9,-9
1481268184319011,7,-1,3,12,6,8,1,0
1481268184319011,3,0,1,-2,4,7,6,3
1481268184320009,-9,-7,-7,-12,-13,-19,-9,-1
1481268184320009,-1,-3,-4,-6,-5,-2,-7,-5
1481268184332010,0,2,4,3,13,5,2,3
1481268184332010,0,-3,-3,-11,-13,-6,-6,-2
1481268184341053,-9,-7,-8,-8,-11,-7,-8,-7
1481268184341053,8,2,10,12,10,15,6,7
1481268184355014,5,2,-2,-6,-6,-1,4,2
1481268184355014,-8,-1,-9,-8,-12,-9,0,-3
1481268184364012,1,4,6,4,9,7,2,-1
1481268184364012,1,5,-2,10,13,7,12,2
1481268184380021,-10,-10,-7,-7,-17,-9,-3,-9
1481268184380021,-3,-3,0,5,5,0,-6,0
1481268184383522,3,1,3,5,10,9,3,2
1481268184383522,-1,0,-6,-3,-3,-7,-2,-3
1481268184392037,-5,-6,-7,-8,-15,-10,-11,-2
1481268184392037,5,2,3,-1,5,13,2,-1
1481268184401048,-2,3,0,-9,-10,-9,-4,-2
1481268184401048,-4,-4,-2,-7,-8,-3,-13,-7
1481268184415032,-1,1,8,-3,2,4,4,0
1481268184415032,0,3,7,7,6,5,2,4
1481268184424033,-3,-8,-5,1,1,0,-9,-2
1481268184424033,0,0,-1,8,7,-2,4,-5
1481268184439099,3,7,4,4,4,10,3,0
1481268184439099,-2,-3,-3,-3,-2,-6,0,3
1481268184440034,-1,-5,-7,-6,-5,-11,-3,-2
1481268184440034,2,2,0,-8,-10,-5,3,0
1481268184452036,1,0,-4,-9,-2,-9,0,1
1481268184452036,-5,-7,-7,-5,-6,-14,-5,-9
1481268184469035,-4,5,-1,-4,1,5,-2,-6
1481268184469035,4,0,1,2,5,-1,8,4
1481268184475114,-3,2,-2,9,6,6,-1,-5
1481268184475114,3,-3,2,8,6,5,5,1
1481268184491722,5,8,7,3,8,11,3,1
1481268184491722,-6,1,-2,1,-3,-2,4,-1
1481268184498702,0,-1,-3,1,-4,1,-4,0
1481268184498702,1,5,3,-8,-6,-4,-2,2
1481268184499691,1,-6,-4,-9,-8,-6,-6,-3
1481268184499691,-5,-3,-4,-5,-6,-8,-8,-6
1481268184512755,-2,4,3,-1,-3,4,2,-1
1481268184512755,1,-2,5,-3,0,4,1,4
1481268184521688,0,-2,-1,3,2,-5,-2,-7
1481268184521688,0,3,3,6,2,3,1,5
1481268184543692,0,0,5,3,2,5,6,0
1481268184543692,-3,-1,-9,-1,-1,-1,-1,-3
1481268184545717,-7,1,-2,1,0,-5,0,-2
1481268184545717,-3,-2,2,0,6,9,5,1
1481268184565741,0,-1,-4,-5,-7,-10,-1,-6
1481268184565741,-7,-5,-4,-3,-7,-2,-6,-11
1481268184567693,1,0,-2,7,-5,2,5,0
1481268184567693,1,1,-2,-11,-5,0,-2,-3
1481268184572737,-2,-6,-9,-7,-9,-3,-5,-4
1481268184572737,2,-3,-1,2,-1,4,-4,-7
1481268184581817,5,6,4,3,7,5,13,5
1481268184581817,-5,-4,-3,-4,-5,0,-6,-5
1481268184594847,0,-3,0,4,5,-1,0,-2
1481268184594847,7,5,4,12,13,5,6,4
1481268184603848,0,-8,0,1,5,10,0,4
1481268184603848,0,-5,-5,-4,-12,-12,-7,-6
1481268184626941,8,4,4,2,4,8,3,2
1481268184626941,-1,2,-1,-2,1,-1,0,3
1481268184627852,-9,-8,-8,-13,-12,-10,-9,-7
1481268184627852,-1,-4,-5,-4,-4,-9,-2,-3
1481268184631920,2,2,2,6,14,11,5,1
1481268184631920,-2,-7,-5,-5,-12,-5,1,-2
1481268184641853,-1,1,1,0,1,2,-5,-7
1481268184641853,5,5,7,13,19,11,3,8
1481268184654928,-4,-2,2,10,8,12,5,4
1481268184654928,-7,-8,-5,-10,-12,-12,-1,-3
1481268184663853,0,1,0,4,7,7,2,1
1481268184663853,1,-6,-1,-2,-10,-2,-1,7
1481268184678868,-6,-4,-6,-16,-24,-18,-5,-3
1481268184678868,-1,-8,-2,-12,-8,-8,-11,-4
1481268184680365,8,3,-2,1,8,2,8,0
1481268184680365,-5,-7,-3,-4,-4,-2,-3,-1
1481268184692023,-7,4,1,1,4,0,1,-3
1481268184692023,2,6,5,10,8,14,7,2
1481268184707101,0,1,4,13,5,5,9,8
1481268184707101,1,-2,-3,-7,-4,-5,-4,-8
1481268184715024,5,0,-2,-2,5,-3,-2,0
1481268184715024,-2,8,1,2,3,4,-2,-1
1481268184724027,-8,-8,-3,-9,-12,-10,-10,-7
1481268184724027,-6,0,-9,-5,-3,-4,2,-6
1481268184739085,6,2,2,2,4,1,3,7
1481268184739085,-1,-2,-8,-5,-2,-6,-5,-3
1481268184740026,3,-4,-6,-7,-7,-6,-6,-4
1481268184740026,3,6,6,5,0,9,5,0
1481268184752105,4,-1,2,0,-1,5,2,-3
1481268184752105,1,-5,-7,-3,-4,-6,-5,-3
1481268184761062,5,-1,3,3,9,8,3,0
1481268184761062,3,4,3,-1,3,5,9,-4
1481268184775122,-5,-4,-3,-1,-5,-7,0,-4
1481268184775122,-2,-3,2,-1,-5,-5,2,3
1481268184784132,0,5,1,-5,-6,-1,1,2
1481268184784132,-5,-5,-7,-14,-14,-13,-9,-7
1481268184798302,-6,0,-2,-4,-9,-8,-11,-8
1481268184798302,2,0,1,-6,-2,3,9,1
1481268184800301,-2,-2,1,-9,-8,-10,2,-2
1481268184800301,-2,-2,-3,1,-5,2,-7,1
1481268184812303,4,7,10,13,14,6,7,3
1481268184812303,2,6,6,7,11,9,9,3
1481268184828301,-5,-7,-5,2,2,1,-6,-11
1481268184828301,1,7,8,9,10,3,7,-1
1481268184834313,1,1,-2,-2,2,6,6,4
1481268184834313,-7,-8,-5,-11,-19,-16,-8,-7
1481268184843303,0,-2,-2,-5,-10,-9,-11,-7
1481268184843303,0,1,2,-2,2,-3,4,-1
1481268184858310,-3,-5,-4,-18,-15,-5,-6,-4
1481268184858310,-5,-1,-7,3,-4,-3,-8,-2
1481268184860303,1,3,3,9,13,13,9,10
1481268184860303,2,0,3,10,6,9,5,5
1481268184872385,-5,-7,-5,-3,0,-17,1,-5
1481268184872385,8,8,1,15,12,17,1,1
1481268184881822,4,2,3,6,2,5,4,5
1481268184881822,-3,-6,-7,-10,-15,-8,-12,-8
1481268184894372,1,-7,0,-1,-10,-7,-7,0
1481268184894372,1,-3,8,0,3,6,5,6
1481268184903439,-5,-1,-9,-11,-10,-14,-7,-4
1481268184903439,-5,0,-5,-9,-6,-10,-8,-4
1481268184918394,-1,7,0,9,12,9,5,-1
1481268184918394,2,1,2,5,-3,-2,-1,2
1481268184920374,-5,-2,-3,-2,-10,-9,0,-6
1481268184920374,7,5,5,10,9,6,5,8
1481268184932451,6,5,6,7,7,12,2,6
1481268184932451,-4,-3,-10,-11,-13,-17,-8,-8
1481268184941372,-1,-1,-3,3,-5,0,-3,-1
1481268184941372,7,3,0,10,2,6,1,3
1481268184954452,-5,-9,-4,-11,-10,-10,0,-1
1481268184954452,-7,-8,-5,-5,-13,-16,-8,-1
1481268184963373,5,5,7,7,6,14,7,7
1481268184963373,-3,1,-2,-3,-3,-5,5,1
1481268184978890,-3,-4,-6,-8,-14,-7,-11,-3
1481268184978890,2,3,4,0,6,6,7,-1
1481268184980391,5,0,4,4,12,6,6,6
1481268184980391,-4,-5,1,-1,-5,-1,-5,-10
1481268184992441,-3,1,-2,8,1,3,-4,-2
1481268184992441,9,3,1,4,7,7,1,-3
1481268185001439,-1,-4,-2,3,-5,-7,-4,-1
1481268185001439,-8,-7,-6,-6,-7,-9,-8,-5
1481268185014440,1,1,2,-3,-5,0,-5,-1
1481268185014440,0,-2,-4,-7,-3,1,1,1
1481268185023502,-9,-1,-3,-6,-12,-14,-8,-6
1481268185023502,0,-1,0,-2,10,7,1,0
1481268185038440,4,5,1,4,6,7,9,1
1481268185038440,-3,0,-1,2,4,-1,-4,-4
1481268185040437,4,-3,0,8,7,3,1,2
1481268185040437,4,-2,5,-1,2,-2,5,5
1481268185052517,1,4,-2,5,-4,-6,-2,3
1481268185052517,-8,-4,0,-3,-2,-7,-10,-5
1481268185061438,-1,0,0,-12,0,-4,-1,0
1481268185061438,-4,-3,-1,-10,-15,-8,-4,-7
1481268185074520,-5,-10,-9,-6,-6,-4,-9,-7
1481268185074520,0,-1,3,-5,4,2,-1,0
1481268185083951,1,10,3,0,-1,2,5,3
1481268185083951,1,-5,-8,4,1,2,1,2
1481268185098563,-3,5,4,4,9,7,3,0
1481268185098563,1,3,1,0,3,4,7,4
1481268185104503,-3,-1,-1,1,-2,-2,-6,-10
1481268185104503,-3,-4,-1,4,0,-2,-7,-7
1481268185112519,3,-1,3,-9,-8,-1,4,1
1481268185112519,-4,-6,-4,-10,-14,-8,-1,0
1481268185127503,-6,-9,-5,0,-3,-4,-3,-1
1481268185127503,3,4,4,0,3,1,2,5
1481268185134505,2,-1,-2,-9,-3,-2,3,-1
1481268185134505,0,-1,-4,2,-2,-4,-5,-3
1481268185143554,0,1,4,1,0,7,1,0
1481268185143554,3,3,3,3,0,8,9,3
1481268185158527,-2,-2,-2,-7,4,-1,-8,-3
1481268185158527,-7,0,-1,2,-1,-3,2,-3
1481268185164508,7,4,-1,5,8,15,5,7
1481268185164508,-1,-2,-10,-5,5,0,1,1
1481268185181636,-2,-8,-5,-3,-11,-8,-6,-5
1481268185181636,3,0,5,3,-1,5,3,3
1481268185183097,-1,-5,-1,-11,-13,-7,4,-1
1481268185183097,-6,-3,-2,-14,-21,-11,-10,-3
1481268185195099,3,4,0,0,-2,-3,-1,-3
1481268185195099,1,1,4,0,4,6,5,-2
1481268185204105,-4,-5,-5,-10,-10,-8,-11,-3
1481268185204105,2,0,0,4,4,1,-3,-6
1481268185218124,2,5,5,10,15,15,9,4
1481268185218124,5,2,-2,9,9,6,5,2
1481268185225169,-2,-6,-6,-10,-10,-12,-8,-8
1481268185225169,3,4,0,1,5,1,8,6
1481268185241104,0,-2,-7,-10,-2,-3,-2,1
1481268185241104,-6,-7,-6,-17,-21,-16,-14,-10
1481268185243102,1,-2,-2,-12,-6,-7,-5,-5
1481268185243102,3,1,4,10,14,6,7,6
1481268185255170,-2,-4,-5,-7,-5,-10,-2,-4
1481268185255170,1,-2,-1,0,-1,5,-5,-1
1481268185264103,5,7,4,15,16,11,7,3
1481268185264103,0,0,6,14,6,4,4,3
1481268185278124,-2,-4,-2,-5,-14,-9,-6,-6
1481268185278124,2,1,1,3,1,6,5,1
1481268185285126,-4,2,1,2,-1,-3,0,0
1481268185285126,-2,-5,-9,-11,-19,-14,-10,-6
1481268185301122,-5,-5,-7,-10,-5,-2,-9,-9
1481268185301122,1,6,4,3,5,0,8,1
1481268185303121,-3,-5,-3,-3,-3,-3,-6,-3
1481268185303121,-3,-2,-3,-2,-5,0,-5,-6
1481268185315122,7,2,4,10,10,11,12,4
1481268185315122,2,-1,1,5,2,3,-2,-2
1481268185324127,-7,-2,-5,-1,-1,-4,0,-7
1481268185324127,1,6,1,3,-2,7,5,2
1481268185338191,-3,-3,2,2,2,2,1,2
1481268185338191,-4,-8,-7,-8,-7,-9,-6,-8
1481268185345126,-5,-2,-5,-6,-9,-5,-4,-1
1481268185345126,0,7,1,-1,1,3,-1,5
1481268185360133,-6,3,0,-3,-11,-9,-4,-5
1481268185360133,-6,-4,-6,-5,-3,-3,-2,-2
1481268185369125,12,5,2,5,1,2,4,0
1481268185369125,0,0,1,-6,-3,-5,-1,6
1481268185375126,-7,-8,-1,2,-3,0,-6,-10
1481268185375126,2,3,5,10,11,11,10,5
1481268185384139,0,3,2,0,4,7,5,4
1481268185384139,-4,-1,-4,0,-1,-4,-2,-8
1481268185398219,2,5,1,1,-6,1,5,4
1481268185398219,0,3,1,-4,-7,0,3,2
1481268185405153,-5,-4,-11,-10,-17,-10,-11,-8
1481268185405153,-7,-5,-5,-8,-6,-5,-4,-6
1481268185421210,4,4,6,-5,-7,-5,2,4
1481268185421210,-1,-1,-3,-10,-5,-7,-4,-2
1481268185423154,-3,0,1,-2,-4,-9,-7,-4
1481268185423154,7,9,5,9,14,13,9,0
1481268185435156,2,5,1,6,13,8,7,0
1481268185435156,-4,-5,-4,5,3,-2,1,1
1481268185444154,0,2,7,14,15,9,12,6
1481268185444154,-3,1,6,-2,2,5,1,2
1481268185466155,-3,-5,-12,-11,-18,-16,-9,-7
1481268185466155,-5,-2,-7,-9,-6,-6,-11,-6
1481268185468154,4,3,1,1,4,5,5,6
1481268185468154,0,-5,-7,-15,-12,-13,-7,-5
1481268185481684,-8,-6,-6,-1,-3,-3,-9,-2
1481268185481684,6,10,3,13,15,15,13,6
1481268185483164,-1,2,10,9,1,7,5,4
1481268185483164,-7,-4,0,-4,-5,-8,0,-2
1481268185495175,2,4,6,11,14,12,7,6
1481268185495175,7,4,2,4,4,8,7,2
1481268185504175,-1,-8,-11,-15,-14,-20,-8,-10
1481268185504175,-6,-10,-3,-1,-4,-2,-7,-7
1481268185518247,1,5,2,2,4,5,4,6
1481268185518247,-9,-8,-5,-14,-12,-9,-9,-4
1481268185525240,-3,-3,-7,-4,-7,-6,-4,-12
1481268185525240,10,3,6,8,14,15,4,7
1481268185541256,0,0,-2,1,1,1,1,6
1481268185541256,-2,-1,-3,-6,-9,-11,-10,-9
1481268185543231,2,5,5,6,7,8,5,5
1481268185543231,5,4,4,6,13,4,8,-1
1481268185555179,-9,-9,-9,-7,-12,-11,-8,-5
1481268185555179,-6,8,-1,5,6,0,2,-1
1481268185564184,-2,4,2,3,10,11,10,4
1481268185564184,-5,-3,-1,-11,-12,-10,-6,-1
1481268185578255,-3,-5,-4,-10,-9,-14,-2,-5
1481268185578255,1,2,7,-2,4,8,3,5
1481268185592192,-1,-1,-5,-7,-8,-1,-4,1
1481268185592192,-4,-5,-11,-9,-11,-8,-9,-5
1481268185601217,4,7,5,6,3,2,2,-1
1481268185601217,9,2,4,3,2,4,6,1
1481268185603251,-4,-2,-3,3,3,-1,-3,-4
1481268185603251,6,-1,3,4,9,5,4,6
1481268185615266,5,0,2,4,11,9,3,-1
1481268185615266,-2,-5,-3,3,-7,-10,0,-2
1481268185624203,-4,-10,-9,-12,-13,-13,-11,-6
1481268185624203,-2,4,-1,-2,-6,-2,2,-1
1481268185646278,-3,-6,-2,-12,-13,-6,-4,0
1481268185646278,-5,-9,3,-3,-9,-8,-4,-8
1481268185648239,-1,0,2,1,4,4,-3,4
1481268185648239,-2,-1,1,9,3,7,2,5
1481268185662268,4,1,3,7,3,4,4,2
1481268185662268,-1,-1,1,9,8,6,-1,7
1481268185663205,6,-1,6,0,-1,8,4,2
1481268185663205,-11,-5,-2,4,-8,-5,3,-1
1481268185675269,-1,-7,-5,-3,-5,-9,-11,-4
1481268185675269,4,3,-2,-12,-12,-2,-1,-2
1481268185684219,-3,1,2,-13,-4,-7,-7,3
1481268185684219,-3,-3,-3,0,-10,-10,-6,-7
1481268185698071,-2,1,3,-5,1,3,0,5
1481268185698071,2,4,0,2,3,7,3,4
1481268185706113,-3,-2,-3,5,1,0,1,-1
1481268185706113,3,-1,5,9,9,5,3,2
1481268185722087,7,3,2,3,0,5,8,4
1481268185722087,-5,-3,-2,-1,-2,-2,-2,-5
1481268185723007,-7,-4,-1,4,0,-1,0,-3
1481268185723007,0,0,2,-1,2,7,5,-1
1481268185735008,-1,3,-5,-3,-2,3,2,-1
1481268185735008,-12,-5,-4,-6,-4,-10,-9,-7
1481268185744008,2,-4,2,6,3,-1,4,7
1481268185744008,1,5,-1,-11,-7,0,1,-1
1481268185757089,-7,-5,0,-7,-11,-5,-8,-7
1481268185757089,3,3,0,1,-7,-3,-2,1
1481268185766048,2,0,0,0,4,9,9,8
1481268185766048,-5,0,-6,-10,-6,-7,-2,-4
1481268185781520,-8,-7,0,9,7,2,-1,6
1481268185781520,4,3,1,8,14,14,11,7
1481268185783020,-2,3,2,7,6,4,6,4
1481268185783020,-5,-3,-3,-6,-16,-11,-15,-5
1481268185794535,3,3,3,7,8,3,3,1
1481268185794535,9,0,1,-7,-7,0,2,-1
1481268185803532,-1,-7,-6,-17,-17,-18,-10,-9
1481268185803532,1,-2,-5,-8,-2,-3,-7,-6
1481268185817611,5,4,6,11,9,12,10,1
1481268185817611,-6,-8,-1,-7,-9,-7,-3,-2
1481268185826535,-2,2,0,6,-5,2,-2,-1
1481268185826535,10,3,5,14,16,21,14,7
1481268185841585,2,5,0,8,8,1,5,0
1481268185841585,-8,-6,-6,-8,-13,-13,-13,-5
1481268185842534,6,4,6,0,3,1,2,6
1481268185842534,-2,-1,-1,-7,3,-2,3,-1
1481268185854613,-7,-7,-8,-14,-18,-15,-16,-6
1481268185854613,-4,-2,-3,-12,-5,-4,-8,-8
1481268185863600,2,2,3,8,13,13,8,2
1481268185863600,-1,-1,0,0,-8,-5,-7,-2
1481268185878061,-3,-1,0,3,5,-2,-1,0
1481268185878061,7,2,2,7,14,13,11,8
1481268185885058,3,7,3,10,3,-3,5,1
1481268185885058,-2,-4,-2,-4,-9,-15,-8,-6
1481268185901632,2,3,3,-2,0,0,2,-1
1481268185901632,2,-3,0,5,3,-2,-1,5
1481268185902569,-11,-7,-8,-12,-10,-14,-12,-13
1481268185902569,-5,-6,-4,-9,-5,-3,-3,-4
1481268185915572,4,4,4,-4,5,6,0,2
1481268185915572,-7,-4,1,1,-1,-4,-8,0
1481268185923608,6,-6,-1,-8,-6,-3,-7,-1
1481268185923608,5,10,1,7,10,8,10,6
1481268185937576,-4,-4,2,0,3,0,6,-3
1481268185937576,-4,-1,-2,-4,-2,-5,-4,-5
1481268185946575,0,1,0,3,5,7,5,2
1481268185946575,-3,-4,-1,0,1,1,-2,2
1481268185961637,-4,-5,-6,-5,-6,-6,-8,-1
1481268185961637,-2,3,-2,-2,-7,-3,-6,-3
1481268185962604,2,1,4,-2,2,2,4,3
1481268185962604,-3,-7,-2,-11,-9,-12,-10,-11
1481268185975578,-5,-7,-2,-4,-4,-10,0,-6
1481268185975578,0,0,0,-4,-1,3,3,6
1481268185999671,-7,-3,-3,-9,-7,2,-5,-3
1481268185999671,-5,-8,-8,-4,-3,-6,-6,-6
1481268186000663,10,4,4,3,8,13,5,8
1481268186000663,3,1,3,7,9,7,9,2
1481268186013665,-6,-2,-7,5,-2,-4,-5,0
1481268186013665,0,4,-1,9,4,-1,6,5
1481268186021690,3,4,-1,-5,-2,1,3,2
1481268186021690,-7,-8,-5,-12,-15,-17,-7,-8
1481268186022710,4,-3,-3,-12,-10,-6,-9,-3
1481268186022710,0,0,2,-3,0,4,0,6
1481268186034663,-2,2,-4,-14,-15,-12,-9,-5
1481268186034663,-4,-6,-2,-1,-2,-4,-8,-4
1481268186043726,0,1,4,12,16,13,11,4
1481268186043726,5,7,5,8,6,7,5,2
1481268186057701,-8,-7,-9,0,-2,-8,-5,5
1481268186057701,7,2,4,14,13,8,6,3
1481268186066669,1,3,3,1,7,1,6,0
1481268186066669,-3,-4,-5,-16,-19,-17,-15,-11
1481268186080688,-1,-4,-7,-4,-9,-2,-8,-6
1481268186080688,2,7,1,0,3,5,2,3
1481268186087746,2,0,-11,-12,-21,-14,-15,-5
1481268186087746,-2,-6,-1,-3,-11,-3,-10,-2
1481268186094702,5,2,9,14,13,18,12,5
1481268186094702,4,2,2,8,-2,1,4,5
1481268186103699,-6,-6,-6,-4,-9,-12,-8,-9
1481268186103699,2,1,2,11,19,7,10,6
1481268186117705,2,6,2,4,2,4,8,4
1481268186117705,-6,-7,-11,-10,-14,-16,-11,-9
1481268186126699,-1,-5,-1,-6,-2,-3,1,-1
1481268186126699,4,9,5,8,12,9,10,5
1481268186140702,-4,-5,0,-8,-4,-10,-5,-7
1481268186140702,-6,-7,-4,-10,-14,-8,-10,-8
1481268186147762,6,5,6,5,9,11,10,4
1481268186147762,2,-7,0,-1,-3,1,-1,1
1481268186163782,1,-1,-5,-3,-17,-13,-8,-1
1481268186163782,5,2,3,4,12,8,2,4
1481268186165736,2,4,8,10,7,10,0,6
1481268186165736,-7,-7,-5,-5,-5,-5,-4,-6
1481268186177781,1,2,1,4,5,1,0,0
1481268186177781,1,6,5,3,10,12,9,6
1481268186186786,-6,-3,-1,0,-6,-10,0,-6
1481268186186786,-6,-3,-7,-7,-10,-15,-11,-9
1481268186200802,3,2,3,-7,-1,3,0,0
1481268186200802,-1,-2,-5,-18,-14,-3,0,2
1481268186207797,-4,-2,-6,-8,-6,-11,-11,-7
1481268186207797,5,3,7,1,8,8,4,3
1481268186223801,4,6,-1,5,7,7,5,2
1481268186223801,-3,-1,-2,6,3,1,0,-6
1481268186225797,3,0,1,2,4,1,0,3
1481268186225797,2,6,4,5,4,8,11,4
1481268186237793,-4,-2,-2,-1,-4,-6,-3,-2
1481268186237793,-1,-1,-8,-4,-8,-6,-6,-5
1481268186245800,2,4,2,-8,-15,-2,-5,-5
1481268186245800,-2,0,-6,-15,-15,-5,-8,-2
1481268186260799,-6,-5,-2,-6,-7,-7,-4,-3
1481268186260799,-2,0,-2,-3,4,2,-3,2
1481268186269798,4,4,6,3,5,-1,9,5
1481268186269798,-4,-3,-5,8,8,1,0,-2
1481268186283342,-1,1,4,8,12,5,0,-2
1481268186283342,3,3,5,1,-1,3,5,1
1481268186291809,1,-9,-1,1,-2,-5,-10,0
1481268186291809,-9,-4,-2,5,0,-7,-1,-3
1481268186296818,2,-1,2,-8,-8,1,-3,-1
1481268186296818,-2,-5,-5,-9,-7,-8,-10,-4
1481268186305822,-5,-2,-11,-7,-6,-2,-3,-5
1481268186305822,9,1,-2,-2,1,8,0,9
1481268186320888,2,0,-3,-6,-5,-1,-4,1
1481268186320888,1,1,2,6,-4,-9,-3,-5
1481268186327820,3,1,1,3,2,6,9,2
1481268186327820,6,4,0,-4,6,5,2,1
1481268186343825,-6,-2,-4,-3,-7,-3,-5,-6
1481268186343825,-4,-1,-1,4,3,0,-3,5
1481268186345822,-1,3,-2,2,9,13,8,5
1481268186345822,-6,-4,0,-3,0,-3,-4,-2
1481268186357822,-1,-2,-6,1,-3,-8,-6,-7
1481268186357822,9,3,7,4,5,2,8,-2
1481268186366823,-2,-6,-9,-10,-5,-5,-2,-1
1481268186366823,-7,-3,-2,-10,-21,-14,-11,-6
1481268186380332,4,0,4,-6,-3,1,0,-2
1481268186380332,2,3,2,3,6,10,2,5
1481268186389833,-8,-10,-6,-9,-10,-5,-11,-6
1481268186389833,4,3,4,7,3,8,5,-1
1481268186403842,2,2,0,13,20,13,11,7
1481268186403842,-2,0,-4,7,4,-1,6,5
1481268186404848,-3,-1,-1,-3,-10,-12,-9,-7
1481268186404848,6,1,7,6,2,7,2,4
1481268186416843,-2,0,2,-5,-13,-7,-5,3
1481268186416843,-5,-9,-5,-14,-28,-22,-14,-12
1481268186425850,-1,1,-4,-5,-5,1,-5,-7
1481268186425850,2,4,-2,4,11,9,7,4
1481268186440845,-6,-4,-3,-6,-3,-1,-3,-9
1481268186440845,0,0,0,0,5,-2,-1,2
1481268186446845,1,2,10,12,19,16,13,7
1481268186446845,2,2,2,16,6,-2,7,9
1481268186470846,-8,-9,-9,-5,-11,-10,-8,-8
1481268186470846,1,4,3,4,4,7,0,1
1481268186472846,0,-3,4,-3,-2,-1,-3,0
1481268186472846,-6,-5,-8,-19,-24,-16,-16,-10
1481268186477366,-3,-2,-6,-11,-5,-3,-6,-6
1481268186477366,0,-1,3,7,8,6,7,3
1481268186486361,-5,-4,-5,0,-3,-6,-2,-5
1481268186486361,2,0,1,2,-3,-3,-1,-7
1481268186508873,7,1,11,10,10,10,12,13
1481268186508873,3,3,3,10,4,-1,2,3
1481268186510873,0,1,-3,1,-4,-7,-4,-3
1481268186510873,-1,0,-5,-2,2,0,-1,3
1481268186523870,4,2,3,-1,-3,-4,1,-1
1481268186523870,-6,-6,-11,-10,-9,-8,-11,-4
1481268186530938,-1,0,0,-4,-4,-1,-7,1
1481268186530938,4,5,5,1,5,8,4,-1
1481268186545943,-8,-3,-1,-1,-5,-10,-8,-9
1481268186545943,-5,-3,0,-3,-1,-1,2,-4
1481268186547872,3,5,6,0,0,2,4,4
1481268186547872,-1,0,2,1,0,2,4,2
1481268186568956,-4,-1,-3,1,-2,-1,-4,-3
1481268186568956,6,1,4,7,10,11,6,6
1481268186570874,-1,-2,0,-1,3,3,-1,1
1481268186570874,-7,-6,2,3,-3,-5,-3,-8
1481268186583896,-5,-5,-1,2,7,-2,8,5
1481268186583896,5,3,0,-2,-3,-1,2,-1
1481268186585395,-5,-1,-3,-7,-18,-16,-15,-11
1481268186585395,-2,-2,-5,-12,-2,-8,-4,-4
1481268186596905,3,2,2,-6,1,6,3,1
1481268186596905,-4,-2,-4,-12,-19,-11,-8,-9
1481268186605939,-1,-5,-1,4,10,-4,4,1
1481268186605939,1,8,4,13,16,14,15,6
1481268186620969,0,1,4,3,-6,5,1,1
1481268186620969,-6,-2,-3,-3,-2,-4,-4,-9
1481268186627970,5,14,8,15,23,16,15,9
1481268186627970,3,2,2,-2,-13,-5,-1,2
1481268186643967,-1,-3,-4,-6,-19,-21,-13,-9
1481268186643967,0,0,0,-7,8,1,-4,-7
1481268186644971,1,0,1,-1,-2,2,2,2
1481268186644971,-5,-4,-4,-17,-29,-21,-13,-5
1481268186656976,0,2,-1,0,8,4,3,-2
1481268186656976,5,3,5,15,20,18,15,13
1481268186666971,-1,0,-4,5,-6,-4,0,-5
1481268186666971,-5,-10,-4,4,2,-3,-6,-4
1481268186680999,6,4,6,9,27,17,12,12
1481268186680999,-1,-2,3,-3,-10,-4,-1,-1
1481268186687439,-8,-12,-8,-16,-16,-23,-16,-14
1481268186687439,1,1,2,-6,4,6,-2,3
1481268186703844,3,2,0,0,-5,-1,0,2
1481268186703844,-6,-12,-12,-14,-22,-19,-12,-17
1481268186705770,-2,3,1,-6,0,1,-3,2
1481268186705770,2,3,7,3,15,13,12,6
1481268186717772,-1,-4,-5,-6,-9,-8,-6,-3
1481268186717772,-4,-4,-3,-5,-6,-6,-8,-3
1481268186726786,12,4,6,7,14,18,15,3
1481268186726786,-1,-2,-2,3,-4,-3,2,4
1481268186740892,-8,-9,-7,-5,-5,-12,-12,-6
1481268186740892,-2,1,2,3,7,13,3,1
1481268186747797,0,-4,-1,-1,0,2,2,6
1481268186747797,-8,-9,-8,-9,-10,-11,-11,-12
1481268186763800,-3,0,-2,-5,-8,-8,-4,-1
1481268186763800,3,5,2,-1,7,6,12,8
1481268186771777,-7,-6,-4,-3,-7,-12,-9,-8
1481268186771777,-5,-8,-6,-8,-11,-6,-4,-7
1481268186777440,8,5,-1,3,3,14,4,4
1481268186777440,3,-4,1,4,0,-5,3,2
1481268186792442,-12,-2,-4,-1,-11,-10,-6,-5
1481268186792442,3,0,-1,12,15,10,6,6
1481268186800651,0,3,1,5,7,4,3,-1
1481268186800651,-4,-2,-1,0,-5,-3,-8,-3
1481268186807728,1,-1,-6,-6,-7,-2,-6,-2
1481268186807728,5,2,3,-4,-5,-3,1,-2
1481268186823743,-5,-5,-4,-11,-20,-14,-6,-7
1481268186823743,-4,3,-4,-6,-8,-5,-5,-1
1481268186825652,3,0,4,-3,-8,2,7,2
1481268186825652,-2,-1,2,2,0,0,0,0
1481268186837732,-1,-2,-2,3,5,2,1,1
1481268186837732,-2,-2,1,7,14,9,1,6
1481268186846657,-1,4,4,3,5,4,5,7
1481268186846657,-3,-4,-4,4,-3,-7,-9,-5
1481268186860656,2,-2,1,-1,-5,-3,0,-2
1481268186860656,1,-1,-3,-11,-5,-1,2,1
