timestamp,x,y,z
1481268171545838,-0.375,-7.6875,-3.5625
1481268171569842,0.25,3.25,-0.125
1481268171584846,1.0625,9.375,1.625
1481268171605846,1.3125,9.3125,2
1481268171621348,1.1875,1.625,2.3125
1481268171644350,-2.875,-11.0625,0.8125
1481268171665855,-1.8125,-9.5,-1.0625
1481268171681356,-0.125,-1.4375,0.5
1481268171704859,0.9375,5.25,3.5625
1481268171725862,0.4375,4.125,1.375
1481268171741363,-0.5625,1.625,-0.375
1481268171764867,-1,1.5,-1.875
1481268171785453,0.0625,2.6875,-0.5625
1481268171801378,0.8125,3.8125,1.5
1481268171823958,0.875,0.125,1.125
1481268171846896,0.3125,2.4375,-1.3125
1481268171868955,0,1.4375,-2.5
1481268171883896,0.875,2.1875,0
1481268171906404,1.75,7.8125,0.5625
1481268171921430,-0.1875,8.1875,-2.25
1481268171943433,-2.0625,1.8125,-3.5
1481268171966489,-0.1875,-3.0625,-1
1481268171981435,0,4.8125,2.625
1481268172003434,2.3125,8.25,1.5
1481268172026544,0,3.875,-0.25
1481268172041481,-0.5,2.125,-1.1875
1481268172063481,0.5625,-0.125,-0.1875
1481268172086516,0.6875,-0.9375,2.3125
1481268172101483,3.625,6.5,1.4375
1481268172131577,-0.625,0.4375,-2.6875
1481268172146644,0.3125,-0.4375,-1
1481268172161644,0.75,2.625,-0.25
1481268172183582,-1,-0.5,-1.875
1481268172207094,-1.6875,-5.75,-1.75
1481268172221103,-0.5625,-2,0.0625
1481268172244171,-0.6875,2.25,-1.3125
1481268172267106,-0.4375,-0.875,0.5625
1481268172281111,-0.5,-3.1875,-0.25
1481268172303110,-0.375,-1.875,0.3125
1481268172327164,-0.3125,1.125,-0.4375
1481268172341161,0.125,2.0625,0.125
1481268172364228,-0.125,-4.4375,1.375
1481268172416678,0.25,-7.25,0.5625
1481268172434188,0.375,-3.625,-0.1875
1481268172439193,0.3125,-1.625,-0.6875
1481268172450189,0.5,-3.0625,0.75
1481268172468190,0,-3.8125,0.5625
1481268172483293,0.5625,-2.5625,1.25
1481268172507202,-0.125,-2.625,5.125
1481268172527858,-1.0625,-4.1875,2.4375
1481268172543795,-0.8125,-3.625,3.6875
1481268172566800,-4.9375,-2.6875,-1.0625
1481268172587798,-5.375,1.3125,-4.75
1481268172610803,4.0625,22.125,-2.5
1481268172626854,-2.125,0.9375,0.3125
1481268172656854,0.9375,2.1875,-1.0625
1481268172672856,-1.6875,2.1875,-0.25
1481268172694906,-0.875,-2.4375,-1.375
1481268172708409,-0.5,-9.3125,-0.375
1481268172723386,-0.125,-5.75,0.1875
1481268172746380,-1.5,-1.8125,-2.125
1481268172768438,-1.25,-0.5625,0.3125
1481268172783378,-1.8125,-1.3125,-1.9375
1481268172806391,-1.75,-1.6875,-1.125
1481268172828467,0.8125,0.625,0.125
1481268172843401,0.8125,-1.125,-2.6875
1481268172866401,2.625,-1.8125,-2.3125
1481268172896404,-0.4375,-7,2.875
1481268172903409,-1.25,-3.625,-0.4375
1481268172926418,0.6875,3.75,-1.0625
1481268172949453,0.5625,3.3125,1.375
1481268172979421,0.3125,-0.375,1.25
1481268172986421,-0.25,-3.625,0
1481268173009941,0.0625,-0.5625,0.1875
1481268173023932,0.125,0.625,1.5625
1481268173052936,-1.5625,-3.0625,1
1481268173069438,-1.5625,-8.0625,2.3125
1481268173083940,-3.125,-8.3125,0.875
1481268173106442,-2.5625,-6.25,-0.625
1481268173129446,-2.375,-0.875,0.375
1481268173150988,-0.375,-2.125,2.1875
1481268173168950,-0.125,-3.0625,0.375
1481268173189453,-1.1875,-3.375,-2.75
1481268173211956,-1.125,-0.6875,-2.125
1481268173226458,0.0625,2.125,1.4375
1481268173249462,-1.9375,3.625,0.1875
1481268173263963,-3,-1.125,-0.1875
1481268173286466,-6.8125,-5.4375,-1.25
1481268173309468,-10.3125,-4.5,0
1481268173323970,-9.5625,-2.625,1.1875
1481268173346473,-5.0625,-3.4375,1.125
1481268173369476,-6,-6.5,-1.0625
1481268173390478,-8.375,-6.4375,-1.625
1481268173406481,-4.625,-1.9375,3.1875
1481268173429484,-7.8125,-6.75,-1.25
1481268173450486,-13.375,-4.125,-2.1875
1481268173466489,-12.25,7.1875,1.6875
1481268173489491,-10,6.9375,1.875
1481268173511994,-3.5,6.25,0
1481268173526996,-4,7.625,-0.375
1481268173549499,-8,5.125,-0.375
1481268173570501,-10.4375,5.6875,1.0625
1481268173586512,-10.9375,6.25,-3.3125
1481268173609513,-5.75,10.75,1
1481268173630523,-2.5625,2.6875,0.5
1481268173646515,-7.1875,-3.625,0.375
1481268173669529,-3.3125,1.4375,0.875
1481268173690553,-1.125,-0.9375,1.0625
1481268173706555,-1.875,-3.125,-0.1875
1481268173728559,-1.25,-0.8125,0.1875
1481268173750641,-1.25,-0.125,-1.375
1481268173767565,-0.5,-1.4375,-0.6875
1481268173788577,-0.5625,-3.4375,-0.25
1481268173813577,-0.75,-3,-0.25
1481268173825648,-1.0625,-0.625,-0.125
1481268173848580,-0.125,1.5625,-0.75
1481268173872114,-1.0625,0.1875,-0.125
1481268173886608,-0.1875,-0.5625,0.3125
1481268173908577,-0.5,-1.625,-0.0625
1481268173931577,-0.75,0.625,-0.1875
1481268173945579,0.75,4.875,-0.3125
1481268173968586,0.75,6.3125,0.75
1481268173991298,0.6875,6.75,1
1481268174006236,0.8125,4.375,0.5
1481268174029239,-0.75,0.875,-0.9375
1481268174052236,-0.1875,1.75,-1.6875
1481268174074798,0.625,3.5,-0.625
1481268174088624,0,5.25,-1.4375
1481268174112624,0.1875,6.1875,-0.0625
1481268174125631,0,7,-0.3125
1481268174148625,0.0625,3.125,0.3125
1481268174172141,-0.5,0.1875,-0.6875
1481268174186299,-0.8125,0.0625,-0.5625
1481268174208365,-0.25,2.1875,0.25
1481268174232338,-0.0625,2.125,0.75
1481268174246304,0.375,0.8125,1.5625
1481268174269319,0.1875,-0.0625,0.9375
1481268174291804,-0.75,-3.5,0.5625
1481268174305874,-0.3125,-3.3125,1.875
1481268174335807,-0.8125,-4.0625,2.75
1481268174342820,-3.375,-4.9375,2.875
1481268174364812,-6.5625,-2.8125,1.875
1481268174387884,-10,0.875,0.375
1481268174401885,-11.1875,2.875,-0.875
1481268174440966,-16,1.5,1.4375
1481268174447886,-25.5625,-0.4375,0.4375
1481268174461929,-31.25,3.375,-0.75
1481268174484917,-41,1.625,4.4375
1481268174507916,-39.375,2.625,-1.3125
1481268174523922,-38.875,-1.75,2.375
1481268174544998,-49.1875,-1.875,3.875
1481268174568437,-41.75,-4.4375,1.9375
1481268174583946,-34.875,0.9375,1
1481268174604966,-34.125,1.75,-0.875
1481268174635948,-35.75,-2.25,-1.9375
1481268174643948,-28.6875,-0.625,-2.25
1481268174664954,-26.5625,1.5,-2.4375
1481268174687583,-29.1875,1.25,-3.375
1481268174710680,-30.875,1.0625,-4
1481268174724664,-24.875,-2.6875,-0.125
1481268174747588,-34.1875,-3.75,-0.4375
1481268174762591,-44.875,-0.125,-2.1875
1481268174784868,-53.0625,-0.0625,-0.1875
1481268174807845,-50.125,-0.625,0.75
1481268174823842,-45.5,-5.5625,0.625
1481268174844843,-51.4375,-5,-0.6875
1481268174868418,-49.5625,-5.125,1.875
1481268174882216,-61.6875,-8.3125,3.0625
1481268174905249,-64.75,-12.125,5.125
1481268174928305,-50.125,-0.625,8.1875
1481268174942297,-41.25,-0.25,-1
1481268174964222,-41.9375,-3.1875,4.625
1481268174988267,-39.6875,4.1875,-2.25
1481268175002345,-39.1875,-4.8125,1.5625
1481268175025302,-40.875,-3,-3.1875
1481268175048268,-34.8125,1.8125,2.75
1481268175062276,-38.125,1.375,0.5625
1481268175085080,-35.8125,1.875,-0.3125
1481268175108173,-38.1875,-0.375,0.375
1481268175130085,-31.8125,4.1875,0.6875
1481268175145083,-29.5625,3.375,-0.5625
1481268175168095,-43.125,3.75,0.25
1481268175182271,-36.25,3.8125,2.3125
1481268175205244,-38,0.375,2.25
1481268175228259,-35.5,3.25,0.5
1481268175242195,-37.9375,2.625,1.1875
1481268175265257,-29.375,-1.375,0.75
1481268175287778,-47.4375,-1.8125,2.375
1481268175302778,-44,-0.375,0.3125
1481268175324849,-40.875,-0.25,1.375
1481268175347781,-37.6875,-0.75,0.75
1481268175362764,-48.8125,6.625,1.5625
1481268175384802,-47.625,9.4375,0.1875
1481268175407890,-47.25,-1.875,1.4375
1481268175422804,-52.8125,-2.3125,0.75
1481268175453807,-48.625,-3.1875,1.0625
1481268175467825,-55.6875,-9,-0.6875
1481268175481839,-58.75,-9.625,0
1481268175513834,-67.125,-5.5625,1.625
1481268175527838,-62.875,-4.125,2.25
1481268175550837,-65.4375,-5.8125,1.75
1481268175564836,-54.375,-8.9375,1.5625
1481268175587525,-65.75,1.875,1.25
1481268175610620,-59.3125,0.125,1.9375
1481268175624584,-57.5625,1.625,0.625
1481268175647511,-53.8125,-2.25,0.1875
1481268175670520,-52.4375,0.9375,2.5625
1481268175685111,-53.75,0.4375,1.375
1481268175707106,-39.5625,-0.1875,0.25
1481268175722137,-46.8125,5.6875,0.375
1481268175746063,-53.5625,2.8125,1.0625
1481268175767553,-43.3125,-2.75,1
1481268175791063,-51.875,-0.25,1
1481268175805072,-51,0.1875,2.75
1481268175827065,-44.875,0.1875,1.3125
1481268175850066,-35.75,-0.9375,-0.6875
1481268175865065,-50.5625,-2.125,1.625
1481268175889090,-57.375,0.1875,2.6875
1481268175910168,-51.375,0.3125,2.125
1481268175925168,-38.375,-2.5625,1.4375
1481268175947089,-38.125,-2.6875,2.4375
1481268175970773,-43.625,-1.75,2.6875
1481268175984230,-34.875,-3.5625,3.0625
1481268176007327,-47.3125,2.25,2.375
1481268176030230,-45.4375,0.25,2.9375
1481268176044788,-40.625,-2.25,1.9375
1481268176067319,-50.1875,1.5625,3
1481268176090955,-60.3125,2.0625,2.0625
1481268176104958,-46.5625,2.75,2.625
1481268176126936,-52.3125,2.375,2.75
1481268176150901,-49.75,0.125,0.375
1481268176164862,-56.75,0.5625,0.0625
1481268176187376,-51.75,0.375,3.3125
1481268176210380,-49.9375,0.9375,4.1875
1481268176224381,-64.875,2.5625,1.875
1481268176247379,-77.9375,-1.5625,3.25
1481268176271009,-73.125,-2.0625,1.9375
1481268176284519,-74.0625,2.875,5.625
1481268176307529,-70.75,1.0625,2.75
1481268176330519,-78.5625,1.6875,2.9375
1481268176344467,-86.4375,-2,3
1481268176367483,-77.4375,0.875,0.8125
1481268176390557,-72.0625,-2.0625,2.3125
1481268176404489,-70.0625,-0.375,2.875
1481268176427495,-69.3125,-2.3125,2.4375
1481268176450560,-64.625,1.0625,5.125
1481268176464493,-60.375,1.5,3.4375
1481268176487521,-71.25,-0.6875,2.5625
1481268176510514,-68.3125,-2,2.5625
1481268176532516,-51.3125,0.625,3.375
1481268176547520,-50.1875,-1.375,1.75
1481268176579091,-48.6875,0.5,2.0625
1481268176584535,-53.375,2.1875,3.9375
1481268176607540,-46.1875,1.375,2.6875
1481268176630541,-53,-0.8125,3.75
1481268176644539,-52.25,-4.1875,1.4375
1481268176667547,-62.5,-0.25,4.8125
1481268176689562,-62.1875,0.625,2.875
1481268176705558,-51,0.6875,4.0625
1481268176727559,-48.5625,-1.875,4.8125
1481268176749644,-61.25,-0.625,3.8125
1481268176764574,-82.625,4.9375,5.75
1481268176795242,-68.4375,2.25,3.3125
1481268176818316,-60.25,-0.75,4.6875
1481268176825287,-79.1875,-3,2.75
1481268176847241,-65.875,-2.25,1.4375
1481268176869823,-70.125,-0.1875,7.125
1481268176884919,-62.875,0.125,1.8125
1481268176906829,-90.375,2.875,6.375
1481268176929831,-81.75,1.375,4.3125
1481268176944838,-64.625,0.5625,7
1481268176967427,-62.25,0.5625,1.1875
1481268176989603,-71.125,0.75,5.3125
1481268177004661,-66.9375,2.4375,1.5
1481268177027670,-67.5,0.5625,3.3125
1481268177049698,-50.1875,-1.5,2.25
1481268177064668,-65.8125,-0.875,1.6875
1481268177087634,-75.0625,0.75,1.6875
1481268177111699,-89.1875,2.375,3.8125
1481268177132644,-73.25,3,2.6875
1481268177147638,-63.8125,1.5625,2.9375
1481268177170239,-69.125,3,3.0625
1481268177184938,-74.6875,1.75,2.625
1481268177207004,-78.0625,-1.5625,3.8125
1481268177229940,-67.875,1,5.4375
1481268177252939,-56.9375,-0.75,2.8125
1481268177267953,-40.5625,-2.4375,1.0625
1481268177289459,-52.3125,-3.125,4.375
1481268177313501,-64.375,-4.0625,4.1875
1481268177327529,-53.0625,-1.75,2.9375
1481268177349462,-50.25,1.0625,3.125
1481268177373008,-60.375,1.8125,2
1481268177387585,-70.375,1.9375,5.6875
1481268177409517,-54.8125,-0.25,3.4375
1481268177433553,-49.9375,0.5625,1.1875
1481268177455519,-75.875,5.5625,2.4375
1481268177470096,-74.875,8.5625,6.125
1481268177492682,-42.0625,5.1875,3.1875
1481268177508614,-30.4375,1.9375,0.125
1481268177529612,-16.75,-1.625,0.6875
1481268177552621,-7.3125,-1.5625,2.375
1481268177567693,-0.75,-2.9375,-2.25
1481268177590320,-1.8125,-0.6875,0.6875
1481268177612283,0.625,-0.5,-1
1481268177627359,-2,-0.9375,-1.625
1481268177650333,-2.125,-1.125,1.8125
1481268177672381,-1.375,0.0625,-0.625
1481268177690423,-7.625,0.625,1.0625
1481268177709514,-11.125,1.375,1.625
1481268177732433,-16.875,-0.375,1.9375
1481268177747428,-18.9375,0.4375,0.4375
1481268177769950,-19.9375,3.25,1.625
1481268177792110,-22.625,6.0625,1.5
1481268177807033,-37,2.375,1.1875
1481268177830032,-53.9375,2.75,4
1481268177852113,-54.1875,5.375,1
1481268177867063,-54.25,4.8125,1.4375
1481268177889799,-44.75,4.9375,4.6875
1481268177912773,-21.125,2.1875,3.625
1481268177927797,-40.8125,1.5,2.4375
1481268177949798,-69.6875,0.0625,0.75
1481268177972307,-59.4375,-0.4375,3
1481268177987317,-51.3125,3,2.4375
1481268178010354,-47.3125,2.25,1.9375
1481268178032343,-43.6875,0.8125,-1.75
1481268178047321,-39.0625,0.4375,0.125
1481268178069912,-44.5625,0.6875,3.0625
1481268178092442,-42,2.5625,0.375
1481268178107501,-40.875,-0.9375,0.8125
1481268178129426,-42.625,2.125,0.4375
1481268178152433,-43,-0.3125,3.0625
1481268178167491,-36.25,-0.75,0.4375
1481268178190114,-46.9375,-0.8125,-0.1875
1481268178212113,-48.6875,-0.5625,1.375
1481268178227181,-52.3125,2.3125,1.0625
1481268178250117,-46.375,1.9375,3.625
1481268178272779,-45.25,2.25,2.6875
1481268178286869,-43.125,-0.3125,-0.5
1481268178309802,-50.9375,-3.5,-1.625
1481268178332803,-47.8125,-4,3.625
1481268178347810,-46.125,-0.125,3.125
1481268178370358,-47,1.625,0.625
1481268178392832,-55.0625,0.125,1.0625
1481268178407832,-56.5625,-1.4375,1.4375
1481268178429833,-62.5,0.375,2.875
1481268178451835,-63.9375,1.1875,-0.0625
1481268178467839,-64.6875,1.375,2
1481268178489421,-59.1875,1.5625,4
1481268178512417,-59.8125,1.875,2.5
1481268178529418,-72,1.8125,2.375
1481268178549418,-73,2,2.125
1481268178572468,-56.5625,4.375,1.8125
1481268178588561,-56.75,3.1875,-0.125
1481268178609557,-42.0625,4.9375,0.0625
1481268178632558,-40.5,7.8125,0.1875
1481268178648562,-67.3125,5.0625,1.125
1481268178670088,-65.75,2.125,1.75
1481268178692708,-58,-1.125,3
1481268178708621,-65.75,5.875,0.875
1481268178729621,-56,-0.3125,4.25
1481268178752620,-42.8125,-0.4375,1.375
1481268178776710,-30.8125,1,2.125
1481268178798121,-38.6875,0.5,0.1875
1481268178812045,-44.25,0.5,-0.375
1481268178829049,-55.75,-2,2.0625
1481268178850126,-47.0625,-10.75,4.375
1481268178872570,-29.375,-0.125,-3.875
1481268178894629,-36.5,2.375,2.1875
1481268178909733,-48.375,-3.8125,5.1875
1481268178932626,-47.125,0.875,-3.6875
1481268178954628,-43.9375,5.125,0.5625
1481268178970302,-44.3125,2.875,3.25
1481268178991954,-38.5,4.9375,-0.0625
1481268179014878,-36.125,7.25,-1.6875
1481268179029879,-37.4375,2.625,0.875
1481268179052917,-31.75,-5,1.1875
1481268179074895,-40.625,7.1875,-0.25
1481268179090257,-49.9375,3.0625,4.375
1481268179112201,-42.25,1.25,1.75
1481268179135260,-52.125,3.625,2.1875
1481268179150263,-47.4375,0.375,-1.5
1481268179172770,-19.75,2.8125,-2.1875
1481268179194801,-8.8125,4.4375,-0.8125
1481268179209798,-17.9375,0.25,1.5
1481268179232770,-35.9375,1.5,4.5
1481268179254799,-25.75,-0.375,3.25
1481268179270381,-2,0.6875,0.5
1481268179291894,1.1875,-0.125,3
1481268179314951,0.125,3.75,3.625
1481268179329893,0.5,5.5,4.3125
1481268179353894,-1.1875,4.625,1.9375
1481268179374909,0.3125,8.0625,0.375
1481268179389922,0.8125,8.875,-1.75
1481268179411920,0.75,6.3125,-1.8125
1481268179435987,0.25,6.3125,0.8125
1481268179450970,-2.25,2,-2.25
1481268179472449,-1.75,3.3125,-2.5
1481268179494571,0.0625,6.0625,0.8125
1481268179511572,-1.5,-8.875,-3
1481268179540671,-0.375,-13.375,-6.8125
1481268179554600,-2.6875,-24.5,-9.8125
1481268179571620,-5.625,-27.0625,-7.9375
1481268179592767,-15,-6.8125,1.0625
1481268179614736,-4.4375,-4,5.25
1481268179638718,-2.1875,7.4375,7.125
1481268179652768,-0.3125,-0.625,1.4375
1481268179674832,-1.75,-2.8125,-0.875
1481268179691340,-1.0625,4.875,1.3125
1481268179712345,-1.8125,13.0625,1.3125
1481268179736345,-3.0625,8.3125,0.0625
1481268179751348,-3.125,4.875,0.25
1481268179772354,-3.4375,5.125,0.125
1481268179795267,-1.375,4.125,0.3125
1481268179811206,-3.125,2.6875,-1.625
1481268179832210,-3.5625,3.75,-3.0625
1481268179855240,-1.75,16,0.8125
1481268179871300,-3.0625,10.625,2.625
1481268179892843,-0.75,8.1875,2.0625
1481268179914867,-0.3125,8.75,-1.125
1481268179936860,-1,2.4375,-0.1875
1481268179951853,-0.375,-1.5,-0.8125
1481268179974861,-0.625,4.375,-1.1875
1481268179990962,-4.4375,4.1875,-2.9375
1481268180012919,-2.3125,1.0625,-4.75
1481268180034904,-5.1875,-9.1875,-1.8125
1481268180050938,-20.0625,-5.75,-4
1481268180072522,-14.8125,-10.75,-3.875
1481268180095080,-25.6875,-5.0625,-1.375
1481268180111076,-15.75,-3.5,4.3125
1481268180132076,-19.375,-10.625,2
1481268180163078,-20.375,-7.1875,0.625
1481268180171596,-32.6875,-8.75,1.8125
1481268180192703,-37.625,-9.75,3.1875
1481268180214704,-35.875,4.125,0.25
1481268180231682,-34,0.6875,0.9375
1481268180252648,-20.0625,3.6875,3.0625
1481268180275156,-6.5,10.75,4.875
1481268180291329,-4.5625,3.375,2.5625
1481268180312331,-2.4375,-5.5,-0.125
1481268180335370,-2.375,-2.625,-1.5
1481268180351333,-18.8125,15.125,-0.3125
1481268180372346,-6.9375,-0.4375,-2.375
1481268180394578,-6.4375,-12.625,-3.1875
1481268180411577,-18.6875,-4,2.125
1481268180448578,-40.6875,7.125,2.25
1481268180464579,-35.8125,0.6875,3.6875
1481268180486624,-33.0625,-5.875,2.625
1481268180493814,-69.375,4.125,0.6875
1481268180514813,-77.8125,6.375,-4.6875
1481268180545814,-60.1875,0.8125,-7.625
1481268180569817,-64.5,10.25,-1.6875
1481268180577325,-71.1875,1.8125,3.25
1481268180606075,-53.9375,-1.8125,0.125
1481268180615067,-39.5,-5.5625,-7.5625
1481268180635069,-35.125,-13.875,-6
1481268180665072,-35.875,-12.875,7.1875
1481268180682708,-25.375,-7.0625,2.625
1481268180705256,-43.0625,3.1875,1.9375
1481268180727265,-42.0625,-1.125,8
1481268180756338,-31.6875,-3.3125,3.3125
1481268180757260,-24.625,-3.5625,0.9375
1481268180777806,-22.5625,-4.1875,0.375
1481268180793409,-9.5625,-5.6875,-0.125
1481268180815347,-18.3125,-12.375,2.8125
1481268180837346,-28.75,-6.0625,4
1481268180853407,-32.1875,8.0625,-3.25
1481268180874860,-25.8125,8.125,-4
1481268180897531,-29.625,1.1875,3.5
1481268180913534,-55.8125,0.75,4.6875
1481268180934613,-65.0625,-1.3125,-0.6875
1481268180957534,-40.9375,-7.125,-2.75
1481268180974125,-41.3125,-4.9375,-2.375
1481268180997663,-63,3.25,1.3125
1481268181017710,-69.3125,-4.6875,1.875
1481268181041667,-56.375,-5.625,2
1481268181054671,-48.6875,2.1875,2.875
1481268181077714,-76.875,3.125,3.75
1481268181093292,-62.875,1.5625,1.625
1481268181115256,-36.5,5.125,0.1875
1481268181137194,-42.3125,7.875,4.875
1481268181153291,-29.375,3.9375,2.0625
1481268181175348,-5.25,0.125,-0.6875
1481268181196897,-0.4375,2.1875,-0.6875
1481268181213898,-3.375,0.5625,-0.1875
1481268181234898,-2.1875,-5.125,-1.75
1481268181257943,-6.5,-4.75,-0.75
1481268181273911,-8.8125,4.1875,1.5625
1481268181296423,-5.625,1.125,0.8125
1481268181317486,-10.8125,-5.6875,-0.125
1481268181333483,-18.125,-4.125,1.3125
1481268181356420,-17.8125,1.4375,2.375
1481268181377430,-1.8125,0.6875,3.3125
1481268181393505,-1.875,2.3125,5.375
1481268181416442,-0.75,5.8125,5.0625
1481268181437442,-5.1875,5.125,3.375
1481268181453462,-23.4375,0.3125,0.6875
1481268181476951,-9.3125,4.0625,3.25
1481268181497006,-18.75,6.625,2.625
1481268181514011,-24.875,-3.4375,-1.1875
1481268181536047,-37.875,-7.5,-2.0625
1481268181557090,-40.9375,-3.5,1.0625
1481268181581546,-62.3125,1.875,1.3125
1481268181596510,-50.125,5.3125,-0.4375
1481268181617588,-73.0625,5.8125,2.4375
1481268181633511,-85.5,12.5,2.625
1481268181656515,-31,11.375,3.75
1481268181677574,-23.875,7.375,3
1481268181693596,-12.8125,2.5625,1.25
1481268181716581,-22.75,1.125,0.125
1481268181737656,-28,-0.375,-2.125
1481268181753579,-37.625,-6,-0.9375
1481268181778157,-33.4375,-8.5625,-2.9375
1481268181797512,-46.25,-7.8125,-0.5
1481268181813542,-37.375,-5.1875,0.5625
1481268181836514,-24.875,-6.5,-2
1481268181857515,-23.125,-5.5,-2.25
1481268181874024,-27.5,0,1.375
1481268181896584,-40.9375,0.5625,-0.375
1481268181925604,-36.0625,0.875,0.625
1481268181941582,-31.375,2.875,1.4375
1481268181956587,-33.9375,2.6875,-0.6875
1481268181977597,-38.375,2.375,-0.125
1481268181993638,-31.875,-0.375,-0.9375
1481268182016636,-22.125,-0.9375,2.8125
1481268182037718,-43.875,-0.125,0.375
1481268182059721,-57.6875,0.1875,-0.9375
1481268182078359,-59.125,-4.125,0.4375
1481268182105981,-47.1875,-4.5625,-2.8125
1481268182113979,-51,-1.75,0.0625
1481268182143981,-56.875,-1,0
1481268182157062,-53.125,-1.375,2.3125
1481268182174080,-49.8125,0.9375,3
1481268182196587,-64.625,-0.75,2.5625
1481268182217585,-65.4375,-3.25,0.8125
1481268182239586,-62.25,-1.1875,1.8125
1481268182256588,-45.3125,-0.5,4.375
1481268182277600,-45.5625,0.1875,2.125
1481268182299615,-55.875,-4.0625,-1.5
1481268182316612,-72.125,-1.8125,-1.0625
1481268182338613,-56.875,-0.5,2.875
1481268182359626,-57,0.0625,2.625
1481268182376623,-84,1.875,3.8125
1481268182406638,-65.125,3.5625,-0.9375
1481268182419688,-45.5625,-2,-1.375
1481268182436638,-69.9375,-0.3125,1.625
1481268182459638,-62.4375,5.9375,1.3125
1481268182480149,-28.4375,4.4375,2.3125
1481268182496659,-42.625,5.125,2.875
1481268182518663,-13.0625,0.875,1.75
1481268182539740,-17.125,-3.4375,-1.375
1481268182556663,-25.9375,-1.875,1.4375
1481268182579218,-36.625,4.0625,2.375
1481268182601243,-43.75,4.6875,4.4375
1481268182616219,-42.9375,4.1875,2.75
1481268182639255,-33.125,1.0625,-1.4375
1481268182663236,-29.4375,-1.75,2.875
1481268182676801,-42.4375,1.6875,0
1481268182698811,-34.25,4.3125,-0.5625
1481268182727815,-23.625,-3.5,-1.9375
1481268182736811,-13.5,-6.875,-0.75
1481268182758816,-11,-5.25,-0.1875
1481268182779827,-8.5625,-5.125,-3.125
1481268182795838,-16.5625,-3.625,2.8125
1481268182818836,-20.875,-4.375,-0.9375
1481268182839950,-23.875,-5.4375,2.0625
1481268182855881,-41.4375,-0.875,2.375
1481268182878921,-37.375,-4.4375,0.25
1481268182899557,-41.1875,-1.0625,0.875
1481268182916459,-34.5625,1.1875,0.875
1481268182940461,-11.25,-0.875,2.8125
1481268182962460,-7.5625,1,1.375
1481268182976555,-2.625,0.1875,-0.875
1481268182999064,-3.6875,0.375,-0.6875
1481268183020142,-13.9375,-1,-3.5625
1481268183036110,-7,-1.875,-2.375
1481268183059068,-8.6875,-1.6875,-0.125
1481268183080079,-14.25,-1.625,1
1481268183096617,-11.625,-0.375,0
1481268183118619,-21.5625,1.5,0.4375
1481268183139691,-38.5625,4.375,2.625
1481268183155697,-35.8125,3.5,0.5
1481268183185821,-26.8125,0.6875,-0.0625
1481268183200238,-8.625,-2.3125,-0.875
1481268183215241,-26.6875,4.9375,5.0625
1481268183239245,-14.3125,5.8125,3.8125
1481268183260246,-4.875,4.25,0.8125
1481268183275796,-10.6875,3.125,2.1875
1481268183298310,-15.5,2.875,1
1481268183322309,-13.875,2.3125,1.5
1481268183337309,-2.125,2.125,1.5625
1481268183358310,-11.0625,3.75,-0.5625
1481268183380821,-14.3125,2.375,-1.75
1481268183397334,-22.5,1.1875,-1.375
1481268183418331,-28.1875,1.1875,-3.3125
1481268183440336,-29,0.1875,-3.1875
1481268183456334,-32.75,3.6875,-0.0625
1481268183478350,-30.8125,3.125,0.8125
1481268183500100,-27.4375,1.5625,0.375
1481268183524025,-36.75,-0.25,1
1481268183546056,-16.5625,-3.5,0.8125
1481268183562027,-28.0625,0.8125,1.625
1481268183583147,-27.625,1.9375,1.125
1481268183598503,-19.1875,-1.6875,1
1481268183620462,-15.625,-3.9375,1.0625
1481268183643495,-26.6875,-2.0625,0.25
1481268183658543,-24.75,-1.8125,0.3125
1481268183681019,-20.4375,-1.5625,0.3125
1481268183710993,-22.625,1,1.0625
1481268183717989,-30.625,4.75,-0.5
1481268183741039,-43.625,5.8125,-2.625
1481268183763009,-41.0625,3.75,-0.3125
1481268183778503,-52.4375,7.625,0.9375
1481268183800624,-48.75,5.1875,0.375
1481268183823574,-47.1875,3.9375,-1.4375
1481268183837613,-25.4375,-1.3125,0.1875
1481268183860547,-41.8125,5.125,-0.375
1481268183883071,-26.0625,2.75,0.375
1481268183898010,-26.0625,1.375,1.3125
1481268183920996,-28.5625,-2,0.6875
1481268183942938,-39.1875,-0.375,1.625
1481268183958035,-40.4375,0.625,0.75
1481268183981009,-42.125,0.625,1.8125
1481268184003539,-46.6875,0.0625,0.75
1481268184017484,-58.375,-5.9375,1.25
1481268184056580,-54.8125,-1.8125,0.3125
1481268184071500,-59.6875,-4.5,-0.5
1481268184078560,-62.625,-4.625,1.75
1481268184107713,-62.875,-9.75,1.5625
1481268184122688,-60,-6.125,1.125
1481268184137687,-66.25,-1.75,3.5625
1481268184160610,-64.5,-7.9375,1.875
1481268184183131,-56.3125,-0.4375,-2.25
1481268184197991,-44.0625,-2.9375,2.625
1481268184221054,-57.375,4.875,1.6875
1481268184242993,-46.4375,1.375,2.75
1481268184259990,-42.3125,0.125,0.6875
1481268184281034,-38.875,1.9375,0.375
1481268184303012,-39.875,0.8125,1
1481268184319011,-35.9375,-1.625,0.375
1481268184341053,-32.25,-0.1875,1.1875
1481268184363011,-32,-1.125,0.125
1481268184382025,-25.6875,-0.25,-0.0625
1481268184401048,-25.875,-2.375,1.4375
1481268184423032,-38.3125,-5.1875,0
1481268184439099,-33,-8.25,0.875
1481268184468035,-28.6875,-5.1875,1.125
1481268184490627,-28.3125,-4,0
1481268184499691,-45.1875,-2.75,1.25
1481268184520708,-47.125,1.75,3.125
1481268184544690,-42.0625,1.6875,1.375
1481268184566694,-33.5625,-1.0625,0.6875
1481268184580818,-27.0625,-3.3125,0.625
1481268184602945,-36.375,-0.8125,0.4375
1481268184627852,-39.625,1.125,1.3125
1481268184640908,-27.9375,-1.3125,1.9375
1481268184662932,-20.8125,-3.25,1.3125
1481268184679867,-27.6875,-0.625,-1.6875
1481268184701024,-30.4375,-2.8125,0.5
1481268184723101,-26.3125,-1.1875,1.3125
1481268184739085,-30.125,2.375,1.25
1481268184761062,-30.1875,1.6875,1.1875
1481268184783136,-27.5625,0.75,0.25
1481268184799307,-28.75,1.625,1.5
1481268184828301,-34.0625,3.625,2.25
1481268184843303,-27.25,0.3125,1.125
1481268184860303,-29.1875,2.125,-1.625
1481268184880820,-27.125,0.4375,-0.0625
1481268184903439,-31.6875,4.3125,0.5
1481268184919383,-29.625,2.875,2.1875
1481268184940454,-26.0625,0.9375,1.4375
1481268184963373,-26.3125,-1.0625,0.75
1481268184979920,-19.9375,-1.3125,0.125
1481268185000449,-24.4375,-0.375,-1.125
1481268185023502,-22.125,-1.5,-0.875
1481268185039438,-22.5,3,0.9375
1481268185060442,-18.25,4.125,4.75
1481268185083485,-14.875,2.5625,6.125
1481268185098563,-14.3125,-0.5,3.6875
1481268185120510,-11.3125,-4.3125,0.3125
1481268185143554,-17.5625,-7.5625,-1.875
1481268185158527,-12.5625,-11.1875,-2.625
1481268185182093,-9.625,-11.125,-3.375
1481268185203105,-11.1875,-10.125,-4.375
1481268185219102,-12.1875,-7.1875,-4.8125
1481268185242102,-11.625,-7.125,-4.125
1481268185263108,-10.375,-9.875,-4
1481268185279131,-20.25,-5.25,-3.5
1481268185302121,-23.5,-2.6875,-2.875
1481268185323123,-17.3125,-4,-2.3125
1481268185339128,-16.6875,-4.125,-0.6875
1481268185368129,-17.4375,-1.75,-0.125
1481268185383137,-22.1875,1.125,2.25
1481268185399156,-12.6875,0.75,1.75
1481268185422157,-4.8125,-2,2.125
1481268185443153,-8.3125,-1.875,1.875
1481268185467155,-10.5625,-2.3125,1.5
1481268185482166,-15.0625,-0.875,0.875
1481268185503234,-13.0625,-1.6875,-0.875
1481268185519176,-15.8125,-2.1875,-1.75
1481268185542184,-20.3125,-2.9375,0.125
1481268185563178,-32.625,0.3125,2.375
1481268185585755,-23.625,-1.9375,3.3125
1481268185602206,-32.0625,-0.9375,4.3125
1481268185623285,-36,-0.375,4.5
1481268185647205,-33,1.3125,2.9375
1481268185662268,-27.1875,1.1875,1.875
1481268185683222,-33.9375,2.25,3.625
1481268185706113,-28.375,2.875,5.25
1481268185723007,-12.0625,-0.0625,3.5625
1481268185743008,-14.75,0.3125,3.25
1481268185766048,-24.75,2.5625,3
1481268185782024,-18.9375,1.875,2.75
1481268185803532,-13.25,0.5,2.3125
1481268185825535,-9.625,-1.3125,1.9375
1481268185841585,-17.625,1.9375,2.375
1481268185863600,-13,2.375,0.875
1481268185879062,-8.625,1.125,0
1481268185901632,-5.6875,-1.3125,0.375
1481268185923608,-6.3125,0.1875,1.125
1481268185945650,-8.875,1.1875,1.1875
1481268185961637,-8.875,-0.4375,0.1875
1481268185998687,-7,-0.6875,0.0625
1481268186012688,-6.8125,0.6875,0.5
1481268186021690,-12.25,1.6875,0.25
1481268186042667,-18.9375,1.625,0.1875
1481268186065665,-10.375,-2.3125,0.25
1481268186081686,-10.5625,-2.625,-0.0625
1481268186102702,-19.5625,0.8125,0.6875
1481268186125705,-33.75,3.875,1.8125
1481268186141767,-16.625,-1,1.9375
1481268186164702,-17.625,-0.1875,3
1481268186185807,-26.0625,2.6875,3
1481268186201797,-21.9375,-1.75,1.875
1481268186224798,-19.75,-2.9375,0.9375
1481268186245800,-23.0625,0.375,0.8125
1481268186267797,-25.3125,2.1875,1.875
1481268186290811,-17.75,2.1875,1.75
1481268186305822,-14.1875,-1.8125,0.625
1481268186321819,-15.9375,-2.1875,-0.4375
1481268186344824,-25.4375,-2.5,-1.9375
1481268186365821,-18.25,-6.75,-1.8125
1481268186388833,-9.5625,-4.5,0.9375
1481268186404848,-8.4375,-1.0625,0.6875
1481268186425850,-13.8125,2.4375,0.9375
1481268186440845,-14.8125,3.0625,0.875
1481268186471846,-4.75,1.875,0.3125
1481268186485863,-2.625,3.5625,0.1875
1481268186509871,-2.6875,4.3125,1.125
1481268186530938,-1.625,4.4375,1.75
1481268186546876,-1.8125,4.1875,2.0625
1481268186569876,-0.75,4.125,1.5
1481268186584940,-0.4375,3.8125,1
1481268186605939,0.125,6,1.25
1481268186620969,-0.25,4.875,1.375
1481268186644971,0.625,4.0625,1.75
1481268186665912,1,1.8125,0.625
1481268186681983,0.5625,0.25,-0.4375
1481268186704799,0.875,-0.375,-1.5625
1481268186725803,1.3125,-0.25,-1.75
1481268186741773,-0.1875,0.625,-0.1875
1481268186770817,1.125,2.875,-3.5625
1481268186785940,-1.125,9,-2.8125
1481268186801654,-1.375,6.5625,-4.125
1481268186824655,-3.1875,7.1875,-2.125
1481268186845680,-15.25,16.375,5.4375
