timestamp,roll,pitch,yaw
1481268171545838,-2.49746,-1.54319,0.226245
1481268171569842,-2.48862,-1.54485,0.217112
1481268171584846,-2.36105,-1.54715,0.0902464
1481268171605846,-2.21268,-1.54902,-0.0573669
1481268171621348,-2.13012,-1.54679,-0.136495
1481268171644350,-2.26077,-1.54672,-0.0101091
1481268171665855,-2.39002,-1.54336,0.11904
1481268171681356,-2.40623,-1.54451,0.133896
1481268171704859,-2.31123,-1.54031,0.0430202
1481268171725862,-2.25161,-1.543,-0.0179253
1481268171741363,-2.22461,-1.54344,-0.0448795
1481268171764867,-2.22219,-1.54558,-0.0488972
1481268171785453,-2.18433,-1.54582,-0.0863708
1481268171801378,-2.11907,-1.54737,-0.152158
1481268171823958,-2.11743,-1.5424,-0.148018
1481268171846896,-2.10436,-1.54544,-0.163535
1481268171868955,-2.08924,-1.54588,-0.177793
1481268171883896,-2.06451,-1.54582,-0.201564
1481268171906404,-1.95077,-1.54692,-0.314408
1481268171921430,-1.79753,-1.55118,-0.47126
1481268171943433,-1.76427,-1.54907,-0.498944
1481268171966489,-1.81461,-1.54916,-0.44865
1481268171981435,-1.74952,-1.55275,-0.521087
1481268172003434,-1.54618,-1.54626,-0.710712
1481268172026544,-1.48047,-1.54773,-0.779752
1481268172041481,-1.42867,-1.55185,-0.839485
1481268172063481,-1.41903,-1.55187,-0.849066
1481268172086516,-1.4741,-1.5476,-0.786562
1481268172101483,-1.34264,-1.54895,-0.921632
1481268172131577,-1.31525,-1.54785,-0.94538
1481268172146644,-1.31525,-1.54785,-0.94538
1481268172161644,-1.27041,-1.54905,-0.993506
1481268172183582,-1.24553,-1.54973,-1.0193
1481268172207094,-1.34036,-1.54738,-0.917386
1481268172221103,-1.39491,-1.54912,-0.86776
1481268172244171,-1.33192,-1.55355,-0.939093
1481268172267106,-1.3197,-1.54782,-0.939658
1481268172281111,-1.37368,-1.54989,-0.889598
1481268172303110,-1.42209,-1.54816,-0.837871
1481268172327164,-1.40785,-1.54844,-0.852712
1481268172341161,-1.35484,-1.55004,-0.909527
1481268172364228,-1.43196,-1.54989,-0.832997
1481268172416678,-1.57328,-1.54799,-0.687954
1481268172434188,-1.6439,-1.54967,-0.620819
1481268172439193,-1.67557,-1.55156,-0.592223
1481268172450189,-1.71817,-1.54749,-0.542606
1481268172468190,-1.79773,-1.54892,-0.466959
1481268172483293,-1.83203,-1.54837,-0.432966
1481268172507202,-1.84129,-1.54753,-0.425541
1481268172527858,-1.89196,-1.54735,-0.377199
1481268172543795,-1.92393,-1.54242,-0.340793
1481268172566800,-1.95515,-1.54426,-0.31408
1481268172587798,-2.00973,-1.54725,-0.263506
1481268172610803,-1.62132,-1.5486,-0.646137
1481268172626854,-1.59438,-1.54953,-0.676054
1481268172656854,-1.56042,-1.54912,-0.708253
1481268172672856,-1.51637,-1.54993,-0.75434
1481268172694906,-1.52769,-1.54867,-0.740159
1481268172708409,-1.699,-1.54701,-0.566787
1481268172723386,-1.80355,-1.54535,-0.460803
1481268172746380,-1.85613,-1.54775,-0.412518
1481268172768438,-1.8591,-1.54664,-0.408469
1481268172783378,-1.88082,-1.54772,-0.387883
1481268172806391,-1.93297,-1.54855,-0.337881
1481268172828467,-1.93297,-1.54855,-0.337881
1481268172843401,-1.95547,-1.55015,-0.316914
1481268172866401,-2.01614,-1.55523,-0.260714
1481268172896404,-2.08204,-1.54842,-0.189883
1481268172903409,-2.15179,-1.5453,-0.11822
1481268172926418,-2.10534,-1.55047,-0.168994
1481268172949453,-2.02527,-1.55042,-0.247961
1481268172979421,-1.99505,-1.54831,-0.275517
1481268172986421,-2.05162,-1.54811,-0.219676
1481268173009941,-2.05162,-1.54811,-0.219676
1481268173023932,-2.02365,-1.54793,-0.247828
1481268173052936,-2.04692,-1.54659,-0.224359
1481268173069438,-2.13972,-1.5464,-0.134915
1481268173083940,-2.22124,-1.54523,-0.0554925
1481268173106442,-2.30448,-1.54417,0.0265455
1481268173129446,-2.3033,-1.54088,0.0269239
1481268173150988,-2.29764,-1.54068,0.020505
1481268173168950,-2.31265,-1.53878,0.0360731
1481268173189453,-2.37098,-1.54053,0.092289
1481268173211956,-2.39859,-1.5423,0.11859
1481268173226458,-2.37314,-1.54228,0.0931496
1481268173249462,-2.33157,-1.54092,0.0525531
1481268173263963,-2.3317,-1.54207,0.0509497
1481268173286466,-2.39148,-1.54036,0.108509
1481268173309468,-2.43319,-1.53892,0.146493
1481268173323970,-2.43964,-1.53641,0.150495
1481268173346473,-2.45203,-1.53793,0.159713
1481268173369476,-2.49988,-1.53638,0.205329
1481268173390478,-2.56101,-1.53468,0.263584
1481268173406481,-2.54547,-1.53496,0.24601
1481268173429484,-2.58115,-1.53201,0.279228
1481268173450486,-2.62749,-1.53176,0.320587
1481268173466489,-2.58641,-1.53192,0.275638
1481268173489491,-2.53244,-1.53521,0.217846
1481268173511994,-2.49896,-1.53359,0.184637
1481268173526996,-2.44414,-1.53648,0.128441
1481268173549499,-2.41426,-1.53802,0.0960368
1481268173570501,-2.36526,-1.54009,0.0428699
1481268173586512,-2.34902,-1.54195,0.0232548
1481268173609513,-2.2192,-1.54583,-0.109519
1481268173630523,-2.15986,-1.54352,-0.166215
1481268173646515,-2.20713,-1.54567,-0.124976
1481268173669529,-2.17542,-1.54399,-0.156012
1481268173690553,-2.15848,-1.54474,-0.174386
1481268173706555,-2.20324,-1.54159,-0.127821
1481268173728559,-2.20542,-1.54223,-0.127135
1481268173750641,-2.2146,-1.54321,-0.119056
1481268173767565,-2.23216,-1.54361,-0.102213
1481268173788577,-2.26443,-1.54253,-0.0699148
1481268173813577,-2.29818,-1.53993,-0.0347956
1481268173825648,-2.29118,-1.5418,-0.0438208
1481268173848580,-2.27548,-1.54091,-0.0581767
1481268173872114,-2.27024,-1.54185,-0.0643607
1481268173886608,-2.27024,-1.54185,-0.0643607
1481268173908577,-2.28638,-1.53938,-0.0466883
1481268173931577,-2.29014,-1.54198,-0.0454285
1481268173945579,-2.24615,-1.54334,-0.0890436
1481268173968586,-2.16546,-1.54468,-0.169357
1481268173991298,-2.05626,-1.54602,-0.278299
1481268174006236,-1.97288,-1.54568,-0.360362
1481268174029239,-1.97288,-1.54568,-0.360362
1481268174052236,-1.95782,-1.54466,-0.372916
1481268174074798,-1.91259,-1.54577,-0.418418
1481268174088624,-1.83741,-1.54974,-0.49774
1481268174112624,-1.72679,-1.54644,-0.601575
1481268174125631,-1.58462,-1.54656,-0.742704
1481268174148625,-1.50562,-1.54651,-0.821584
1481268174172141,-1.50562,-1.54651,-0.821584
1481268174186299,-1.50562,-1.54651,-0.821584
1481268174208365,-1.47196,-1.54838,-0.859571
1481268174232338,-1.41903,-1.54811,-0.91309
1481268174246304,-1.40593,-1.54595,-0.922799
1481268174269319,-1.40593,-1.54595,-0.922799
1481268174291804,-1.46045,-1.54637,-0.869727
1481268174305874,-1.51177,-1.54811,-0.822806
1481268174335807,-1.56661,-1.54673,-0.76748
1481268174342820,-1.63281,-1.54287,-0.697382
1481268174364812,-1.6718,-1.542,-0.66081
1481268174387884,-1.67009,-1.54179,-0.665941
1481268174401885,-1.63153,-1.54427,-0.711657
1481268174440966,-1.60666,-1.54375,-0.742634
1481268174447886,-1.62415,-1.54304,-0.7325
1481268174461929,-1.58772,-1.54293,-0.779067
1481268174484917,-1.57605,-1.54027,-0.804164
1481268174507916,-1.5589,-1.5445,-0.841478
1481268174523922,-1.58331,-1.53908,-0.821433
1481268174544998,-1.59668,-1.53905,-0.827544
1481268174568437,-1.67828,-1.53878,-0.762681
1481268174583946,-1.67312,-1.53768,-0.778629
1481268174604966,-1.67392,-1.54111,-0.795126
1481268174635948,-1.70965,-1.54142,-0.77177
1481268174643948,-1.736,-1.54113,-0.753095
1481268174664954,-1.72398,-1.54064,-0.771484
1481268174687583,-1.71976,-1.54297,-0.787149
1481268174710680,-1.72817,-1.54576,-0.791383
1481268174724664,-1.77714,-1.54526,-0.750661
1481268174747588,-1.85939,-1.54388,-0.678501
1481268174762591,-1.85954,-1.5434,-0.691546
1481268174784868,-1.83628,-1.54348,-0.733473
1481268174807845,-1.83347,-1.54579,-0.7584
1481268174823842,-1.93247,-1.54621,-0.676896
1481268174844843,-2.0354,-1.54406,-0.589239
1481268174868418,-2.10668,-1.5439,-0.536692
1481268174882216,-2.18526,-1.5413,-0.479274
1481268174905249,-2.29179,-1.53945,-0.398106
1481268174928305,-2.25592,-1.53413,-0.448897
1481268174942297,-2.26851,-1.53382,-0.449369
1481268174964222,-2.27431,-1.53346,-0.460836
1481268174988267,-2.25372,-1.533,-0.491767
1481268175002345,-2.28241,-1.53418,-0.480756
1481268175025302,-2.34595,-1.53085,-0.427621
1481268175048268,-2.33067,-1.53304,-0.458387
1481268175062276,-2.32489,-1.53241,-0.475949
1481268175085080,-2.32063,-1.53518,-0.495644
1481268175108173,-2.33628,-1.5319,-0.48945
1481268175130085,-2.30746,-1.53311,-0.530011
1481268175145083,-2.28717,-1.53465,-0.56116
1481268175168095,-2.26382,-1.53611,-0.600056
1481268175182271,-2.22012,-1.53479,-0.653804
1481268175205244,-2.22089,-1.53544,-0.668731
1481268175228259,-2.20773,-1.53694,-0.696085
1481268175242195,-2.18057,-1.53578,-0.73382
1481268175265257,-2.20758,-1.53564,-0.717912
1481268175287778,-2.21598,-1.53373,-0.72442
1481268175302778,-2.23889,-1.53409,-0.718029
1481268175324849,-2.23648,-1.53313,-0.733303
1481268175347781,-2.24857,-1.53503,-0.737615
1481268175362764,-2.20558,-1.53477,-0.795258
1481268175384802,-2.09741,-1.53759,-0.920018
1481268175407890,-2.12102,-1.53532,-0.910841
1481268175422804,-2.14335,-1.53737,-0.911519
1481268175453807,-2.17432,-1.53576,-0.895735
1481268175467825,-2.24754,-1.53377,-0.840762
1481268175481839,-2.33278,-1.53167,-0.775616
1481268175513834,-2.3759,-1.53034,-0.75635
1481268175527838,-2.41846,-1.52882,-0.736639
1481268175550837,-2.45457,-1.52746,-0.723819
1481268175564836,-2.52353,-1.5245,-0.67502
1481268175587525,-2.52858,-1.5234,-0.690864
1481268175610620,-2.53271,-1.52338,-0.707939
1481268175624584,-2.53036,-1.52595,-0.731938
1481268175647511,-2.56095,-1.52453,-0.718697
1481268175670520,-2.56776,-1.52417,-0.730072
1481268175685111,-2.58558,-1.52455,-0.73231
1481268175707106,-2.59803,-1.52414,-0.733055
1481268175722137,-2.59335,-1.52671,-0.755422
1481268175746063,-2.57416,-1.52835,-0.792942
1481268175767553,-2.59756,-1.52681,-0.784176
1481268175791063,-2.60175,-1.52744,-0.798526
1481268175805072,-2.59055,-1.52673,-0.827233
1481268175827065,-2.58864,-1.52643,-0.843892
1481268175850066,-2.60515,-1.52783,-0.841133
1481268175865065,-2.61339,-1.52578,-0.848604
1481268175889090,-2.61138,-1.52701,-0.871939
1481268175910168,-2.60948,-1.52786,-0.892448
1481268175925168,-2.62036,-1.5258,-0.894265
1481268175947089,-2.62264,-1.52554,-0.906502
1481268175970773,-2.62636,-1.5227,-0.915626
1481268175984230,-2.63105,-1.52117,-0.923772
1481268176007327,-2.62092,-1.52202,-0.950356
1481268176030230,-2.60416,-1.52227,-0.982761
1481268176044788,-2.6267,-1.52224,-0.976025
1481268176067319,-2.61259,-1.52276,-1.00825
1481268176090955,-2.61079,-1.52213,-1.02865
1481268176104958,-2.58838,-1.52307,-1.0676
1481268176126936,-2.57691,-1.52329,-1.09827
1481268176150901,-2.58511,-1.52377,-1.10744
1481268176164862,-2.60605,-1.52272,-1.10421
1481268176187376,-2.60105,-1.52279,-1.12808
1481268176210380,-2.5816,-1.52376,-1.16682
1481268176224381,-2.58478,-1.52383,-1.18627
1481268176247379,-2.59122,-1.52361,-1.20649
1481268176271009,-2.62043,-1.52176,-1.20191
1481268176284519,-2.58006,-1.52264,-1.26868
1481268176307529,-2.5813,-1.52321,-1.2921
1481268176330519,-2.57426,-1.52342,-1.32713
1481268176344467,-2.59083,-1.52298,-1.3422
1481268176367483,-2.61816,-1.52129,-1.33788
1481268176390557,-2.63421,-1.52172,-1.34843
1481268176404489,-2.62875,-1.52341,-1.37932
1481268176427495,-2.65314,-1.52225,-1.37938
1481268176450560,-2.61972,-1.52102,-1.43524
1481268176464493,-2.59874,-1.52131,-1.47826
1481268176487521,-2.61861,-1.52044,-1.482
1481268176510514,-2.63645,-1.5196,-1.48761
1481268176532516,-2.63457,-1.51886,-1.5073
1481268176547520,-2.65909,-1.51682,-1.49941
1481268176579091,-2.66456,-1.51872,-1.51333
1481268176584535,-2.64806,-1.51886,-1.54789
1481268176607540,-2.65312,-1.51836,-1.55885
1481268176630541,-2.6518,-1.51893,-1.57993
1481268176644539,-2.68147,-1.5175,-1.56799
1481268176667547,-2.67244,-1.51628,-1.59731
1481268176689562,-2.67693,-1.5162,-1.61535
1481268176705558,-2.66409,-1.51617,-1.64551
1481268176727559,-2.66163,-1.51505,-1.66552
1481268176749644,-2.65682,-1.51526,-1.69244
1481268176764574,-2.64335,-1.51495,-1.73209
1481268176795242,-2.64438,-1.51549,-1.75527
1481268176818316,-2.65095,-1.51557,-1.77165
1481268176825287,-2.68306,-1.51479,-1.76613
1481268176847241,-2.71019,-1.51587,-1.76432
1481268176869823,-2.68862,-1.51405,-1.80931
1481268176884919,-2.69978,-1.51379,-1.8202
1481268176906829,-2.68004,-1.51256,-1.86933
1481268176929831,-2.67952,-1.51478,-1.90173
1481268176944838,-2.63971,-1.51209,-1.96155
1481268176967427,-2.65966,-1.51283,-1.96433
1481268176989603,-2.64456,-1.51381,-2.00574
1481268177004661,-2.67093,-1.51352,-2.00151
1481268177027670,-2.6783,-1.51344,-2.01756
1481268177049698,-2.69348,-1.5132,-2.02076
1481268177064668,-2.71773,-1.51275,-2.01918
1481268177087634,-2.73196,-1.51309,-2.03182
1481268177111699,-2.74275,-1.51299,-2.05026
1481268177132644,-2.75276,-1.51459,-2.06695
1481268177147638,-2.74205,-1.5147,-2.0999
1481268177170239,-2.74064,-1.51655,-2.12637
1481268177184938,-2.74828,-1.51675,-2.14443
1481268177207004,-2.76745,-1.51546,-2.1526
1481268177229940,-2.75023,-1.51552,-2.1931
1481268177252939,-2.75962,-1.51598,-2.20392
1481268177267953,-2.77372,-1.51463,-2.20344
1481268177289459,-2.77169,-1.51343,-2.2249
1481268177313501,-2.78099,-1.51131,-2.23729
1481268177327529,-2.79402,-1.51193,-2.24374
1481268177349462,-2.78724,-1.5117,-2.26735
1481268177373008,-2.78541,-1.51219,-2.28969
1481268177387585,-2.77895,-1.51324,-2.32123
1481268177409517,-2.77721,-1.51443,-2.34313
1481268177433553,-2.78567,-1.51362,-2.35129
1481268177455519,-2.79449,-1.51508,-2.36872
1481268177470096,-2.76878,-1.51719,-2.42079
1481268177492682,-2.74931,-1.5202,-2.45647
1481268177508614,-2.75334,-1.52061,-2.4627
1481268177529612,-2.75958,-1.52039,-2.46206
1481268177552621,-2.74902,-1.51847,-2.47348
1481268177567693,-2.77181,-1.51932,-2.45251
1481268177590320,-2.77276,-1.51901,-2.4523
1481268177612283,-2.77247,-1.51763,-2.45106
1481268177627359,-2.78824,-1.51993,-2.43796
1481268177650333,-2.78053,-1.51882,-2.44561
1481268177672381,-2.7886,-1.51748,-2.43672
1481268177690423,-2.78318,-1.51864,-2.44608
1481268177709514,-2.7778,-1.51935,-2.45575
1481268177732433,-2.77425,-1.51907,-2.46537
1481268177747428,-2.77621,-1.51863,-2.46944
1481268177769950,-2.76827,-1.51935,-2.48428
1481268177792110,-2.74586,-1.5217,-2.51509
1481268177807033,-2.75246,-1.52128,-2.52075
1481268177830032,-2.73128,-1.52198,-2.56061
1481268177852113,-2.72733,-1.5244,-2.58412
1481268177867063,-2.71633,-1.52661,-2.61445
1481268177889799,-2.67711,-1.52799,-2.66893
1481268177912773,-2.64391,-1.52741,-2.70912
1481268177927797,-2.63353,-1.52712,-2.73411
1481268177949798,-2.65597,-1.52566,-2.73524
1481268177972307,-2.65542,-1.52602,-2.75735
1481268177987317,-2.64258,-1.52593,-2.78714
1481268178010354,-2.6261,-1.52734,-2.82039
1481268178032343,-2.66909,-1.52786,-2.79302
1481268178047321,-2.67899,-1.52662,-2.79643
1481268178069912,-2.67904,-1.52845,-2.81324
1481268178092442,-2.66489,-1.52939,-2.8417
1481268178107501,-2.68886,-1.52663,-2.83034
1481268178129426,-2.68742,-1.52796,-2.84734
1481268178152433,-2.68597,-1.52884,-2.86472
1481268178167491,-2.70477,-1.52801,-2.85815
1481268178190114,-2.72438,-1.52824,-2.85538
1481268178212113,-2.73537,-1.52816,-2.8615
1481268178227181,-2.75075,-1.52789,-2.86353
1481268178250117,-2.72923,-1.52807,-2.90132
1481268178272779,-2.72373,-1.52816,-2.92255
1481268178286869,-2.73991,-1.53042,-2.92272
1481268178309802,-2.78049,-1.52914,-2.8991
1481268178332803,-2.79042,-1.52868,-2.90627
1481268178347810,-2.78282,-1.52854,-2.9301
1481268178370358,-2.78775,-1.52711,-2.94061
1481268178392832,-2.80261,-1.52739,-2.94491
1481268178407832,-2.80909,-1.52702,-2.95817
1481268178429833,-2.811,-1.52657,-2.97825
1481268178451835,-2.84022,-1.52949,-2.97247
1481268178467839,-2.84481,-1.52827,-2.9899
1481268178489421,-2.83168,-1.52787,-3.02383
1481268178512417,-2.82221,-1.52995,-3.0548
1481268178529418,-2.82194,-1.53134,-3.08004
1481268178549418,-2.83241,-1.53078,-3.09491
1481268178572468,-2.83223,-1.53053,-3.11442
1481268178588561,-2.85933,-1.53238,-3.10749
1481268178609557,-2.86638,-1.5327,-3.11479
1481268178632558,-2.8619,-1.53591,-3.13381
1481268178648562,-2.85655,-1.53811,3.12036
1481268178670088,-2.85165,-1.53732,3.09294
1481268178692708,-2.84081,-1.53743,3.06187
1481268178708621,-2.79851,-1.5395,2.99675
1481268178729621,-2.75237,-1.54182,2.93071
1481268178752620,-2.76148,-1.53926,2.92516
1481268178776710,-2.74676,-1.54309,2.89922
1481268178798121,-2.76159,-1.54179,2.90071
1481268178812045,-2.77739,-1.54288,2.90103
1481268178829049,-2.7839,-1.54399,2.8881
1481268178850126,-2.76692,-1.54161,2.85459
1481268178872570,-2.82771,-1.5392,2.90539
1481268178894629,-2.81206,-1.54152,2.87683
1481268178909733,-2.78503,-1.53912,2.83301
1481268178932626,-2.83851,-1.53672,2.87014
1481268178954628,-2.84285,-1.54013,2.85907
1481268178970302,-2.79702,-1.5416,2.79771
1481268178991954,-2.80781,-1.54015,2.79501
1481268179014878,-2.83503,-1.54502,2.80978
1481268179029879,-2.82725,-1.54742,2.78893
1481268179052917,-2.82871,-1.54576,2.77937
1481268179074895,-2.80634,-1.54588,2.74273
1481268179090257,-2.75096,-1.54407,2.66969
1481268179112201,-2.75438,-1.546,2.65847
1481268179135260,-2.73965,-1.54658,2.62549
1481268179150263,-2.76753,-1.54573,2.63668
1481268179172770,-2.78235,-1.55194,2.64516
1481268179194801,-2.77279,-1.551,2.63206
1481268179209798,-2.76554,-1.55162,2.61871
1481268179232770,-2.68409,-1.55216,2.52478
1481268179254799,-2.62282,-1.55416,2.4549
1481268179270381,-2.5952,-1.55327,2.42632
1481268179291894,-2.5484,-1.55614,2.38031
1481268179314951,-2.46252,-1.55093,2.29386
1481268179329893,-2.32438,-1.55576,2.15625
1481268179353894,-2.22795,-1.55879,2.05952
1481268179374909,-2.08223,-1.55906,1.91373
1481268179389922,-1.88546,-1.55791,1.71708
1481268179411920,-1.71987,-1.55695,1.55169
1481268179435987,-1.52339,-1.55691,1.35523
1481268179450970,-1.41598,-1.55565,1.24713
1481268179472449,-1.30974,-1.56005,1.14012
1481268179494571,-1.11383,-1.55871,0.944264
1481268179511572,-1.25497,-1.55579,1.08531
1481268179540671,-1.64992,-1.56752,1.47992
1481268179554600,-2.5185,-1.56537,2.348
1481268179571620,-3.03073,-1.55247,2.85789
1481268179592767,-3.03385,-1.54798,2.85549
1481268179614736,-2.96159,-1.54607,2.78157
1481268179638718,-2.81875,-1.55031,2.63829
1481268179652768,-2.77777,-1.55068,2.59728
1481268179674832,-2.82474,-1.55296,2.64415
1481268179691340,-2.78744,-1.55058,2.60601
1481268179712345,-2.66342,-1.55137,2.48074
1481268179736345,-2.56714,-1.5587,2.38414
1481268179751348,-2.47916,-1.56045,2.29511
1481268179772354,-2.35522,-1.55631,2.1692
1481268179795267,-2.2221,-1.56064,2.03603
1481268179811206,-2.16311,-1.56221,1.97608
1481268179832210,-2.17245,-1.56797,1.98446
1481268179855240,-1.32542,-1.56311,1.13662
1481268179871300,-0.915098,-1.56336,0.72498
1481268179892843,-0.758665,-1.55646,0.568906
1481268179914867,-0.582918,-1.55594,0.392759
1481268179936860,-0.52748,-1.55834,0.336328
1481268179951853,-0.541581,-1.55349,0.351297
1481268179974861,-0.48395,-1.55455,0.293032
1481268179990962,-0.39386,-1.55191,0.201361
1481268180012919,-0.307441,-1.55667,0.113419
1481268180034904,-0.316469,-1.55331,0.121932
1481268180050938,-0.241383,-1.56013,0.0389094
1481268180072522,-0.195322,-1.56287,-0.0120634
1481268180095080,-0.120266,-1.56424,-0.0961573
1481268180111076,-0.362278,-1.56376,0.140686
1481268180132076,-1.0167,-1.5708,0.785815
1481268180163078,-1.69165,-1.5708,1.45606
1481268180171596,-2.22284,-1.56664,1.97594
1481268180192703,-2.4294,-1.5708,2.17003
1481268180214704,-2.34087,-1.56021,2.06758
1481268180231682,-2.31148,-1.56069,2.02651
1481268180252648,-1.97446,-1.55785,1.68236
1481268180275156,-1.54635,-1.56486,1.25248
1481268180291329,-1.37684,-1.56062,1.08155
1481268180312331,-1.51479,-1.56654,1.21836
1481268180335370,-1.78271,-1.5708,1.48586
1481268180351333,-1.20004,-1.56233,0.896335
1481268180372346,-1.06364,-1.56642,0.756963
1481268180394578,-1.58524,-1.5708,1.27683
1481268180411577,-1.98593,-1.56257,1.6712
1481268180448578,-1.71822,-1.5708,1.38923
1481268180464579,-1.80279,-1.5708,1.46149
1481268180486624,-2.12775,-1.56536,1.7755
1481268180493814,-2.04958,-1.56478,1.67294
1481268180514813,-1.69504,-1.5708,1.29059
1481268180545814,-1.93356,-1.5708,1.5087
1481268180569817,-1.28041,-1.56643,0.832402
1481268180577325,-1.28481,-1.5708,0.810027
1481268180606075,-1.12744,-1.56146,0.636325
1481268180615067,-1.05648,-1.56415,0.551278
1481268180635069,-2.76132,-1.5708,2.24886
1481268180665072,-2.5634,-1.55795,2.03116
1481268180682708,-2.75202,-1.5708,2.21604
1481268180705256,-2.60636,-1.5708,2.05457
1481268180727265,-2.43778,-1.5708,1.87146
1481268180756338,-2.42473,-1.55853,1.84552
1481268180757260,-2.51575,-1.56589,1.9298
1481268180777806,-2.54027,-1.55835,1.94507
1481268180793409,-2.58863,-1.56064,1.99109
1481268180815347,-2.70453,-1.55107,2.09906
1481268180837346,-2.72937,-1.5492,2.11453
1481268180853407,-2.69059,-1.55021,2.06349
1481268180874860,-2.62055,-1.55928,1.98635
1481268180897531,-2.60926,-1.55736,1.96454
1481268180913534,-2.5485,-1.54982,1.88168
1481268180934613,-2.53727,-1.55869,1.85051
1481268180957534,-2.67287,-1.5533,1.97078
1481268180974125,-2.79871,-1.55131,2.08248
1481268180997663,-2.76309,-1.55609,2.02584
1481268181017710,-2.7972,-1.5482,2.03327
1481268181041667,-2.89538,-1.54678,2.11365
1481268181054671,-2.88726,-1.54605,2.08759
1481268181077714,-2.843,-1.55219,2.01804
1481268181093292,-2.83513,-1.55649,1.98968
1481268181115256,-2.88294,-1.55221,2.02256
1481268181137194,-2.6979,-1.5633,1.82513
1481268181153291,-2.5285,-1.56065,1.64342
1481268181175348,-2.54379,-1.56103,1.65699
1481268181196897,-2.5393,-1.56711,1.65354
1481268181213898,-2.50589,-1.56375,1.61811
1481268181234898,-2.60249,-1.56109,1.71385
1481268181257943,-2.70899,-1.56385,1.81986
1481268181273911,-2.63557,-1.55923,1.74126
1481268181296423,-2.58626,-1.55716,1.68888
1481268181317486,-2.67069,-1.55803,1.77072
1481268181333483,-2.68347,-1.55475,1.7766
1481268181356420,-2.62704,-1.55399,1.71349
1481268181377430,-2.55187,-1.55357,1.63766
1481268181393505,-2.44192,-1.55546,1.52772
1481268181416442,-2.29972,-1.55805,1.38537
1481268181437442,-2.19522,-1.55719,1.27841
1481268181453462,-2.18238,-1.55845,1.25743
1481268181476951,-2.1182,-1.55306,1.18953
1481268181497006,-1.99633,-1.55655,1.06077
1481268181514011,-2.05262,-1.55258,1.10858
1481268181536047,-2.18166,-1.55706,1.22505
1481268181557090,-2.26853,-1.55342,1.29768
1481268181581546,-2.24525,-1.5543,1.25271
1481268181596510,-2.27014,-1.55058,1.25938
1481268181617588,-2.29082,-1.54862,1.25475
1481268181633511,-1.94542,-1.55188,0.879128
1481268181656515,-1.70514,-1.55076,0.628019
1481268181677574,-1.54162,-1.55123,0.455612
1481268181693596,-1.48732,-1.55173,0.396141
1481268181716581,-1.48924,-1.55217,0.389873
1481268181737656,-1.51549,-1.55321,0.406735
1481268181753579,-1.58875,-1.56009,0.464268
1481268181778157,-1.75775,-1.55245,0.625334
1481268181797512,-1.96604,-1.55352,0.817282
1481268181813542,-2.03526,-1.55321,0.873544
1481268181836514,-2.12014,-1.55513,0.949947
1481268181857515,-2.25872,-1.55173,1.08079
1481268181874024,-2.30456,-1.55018,1.11709
1481268181896584,-2.32803,-1.5512,1.12637
1481268181925604,-2.34441,-1.55289,1.13046
1481268181941582,-2.28768,-1.54932,1.0622
1481268181956587,-2.31287,-1.55322,1.07589
1481268181977597,-2.27346,-1.55525,1.02304
1481268181993638,-2.32315,-1.55344,1.06156
1481268182016636,-2.32689,-1.55233,1.05752
1481268182037718,-2.37922,-1.55369,1.09502
1481268182059721,-2.34475,-1.55261,1.04004
1481268182078359,-2.33823,-1.55549,1.01314
1481268182105981,-2.41193,-1.55261,1.07033
1481268182113979,-2.4894,-1.54897,1.12971
1481268182143981,-2.52419,-1.55,1.14513
1481268182157062,-2.55003,-1.54975,1.1529
1481268182174080,-2.52519,-1.54885,1.11047
1481268182196587,-2.4957,-1.55035,1.05847
1481268182217585,-2.5493,-1.54758,1.08905
1481268182239586,-2.55772,-1.54623,1.07531
1481268182256588,-2.50095,-1.54366,1.00287
1481268182277600,-2.48388,-1.54048,0.969224
1481268182299615,-2.55865,-1.54294,1.02562
1481268182316612,-2.59635,-1.5441,1.03804
1481268182338613,-2.60198,-1.54038,1.02309
1481268182359626,-2.61741,-1.54108,1.01964
1481268182376623,-2.53623,-1.53931,0.908522
1481268182406638,-2.49342,-1.5456,0.843042
1481268182419688,-2.64671,-1.54321,0.981109
1481268182436638,-2.66705,-1.53998,0.976196
1481268182459638,-2.59155,-1.54574,0.878949
1481268182480149,-2.57701,-1.5486,0.85487
1481268182496659,-2.52372,-1.54748,0.786176
1481268182518663,-2.50309,-1.54884,0.76093
1481268182539740,-2.52973,-1.54745,0.781552
1481268182556663,-2.53863,-1.54803,0.781647
1481268182579218,-2.43833,-1.54672,0.668146
1481268182601243,-2.32548,-1.54878,0.539477
1481268182616219,-2.29306,-1.54646,0.492371
1481268182639255,-2.33457,-1.55479,0.52134
1481268182663236,-2.33417,-1.54629,0.511753
1481268182676801,-2.32068,-1.54945,0.482664
1481268182698811,-2.28744,-1.54914,0.437525
1481268182727815,-2.33842,-1.54855,0.480501
1481268182736811,-2.42941,-1.54819,0.566989
1481268182758816,-2.49345,-1.54773,0.627623
1481268182779827,-2.60571,-1.54538,0.737354
1481268182795838,-2.60293,-1.5449,0.72895
1481268182818836,-2.63912,-1.54273,0.757759
1481268182839950,-2.67363,-1.54027,0.783942
1481268182855881,-2.65857,-1.54123,0.754606
1481268182878921,-2.6856,-1.54157,0.768717
1481268182899557,-2.65836,-1.54076,0.726721
1481268182916459,-2.63109,-1.54343,0.687522
1481268182940461,-2.58551,-1.54313,0.637848
1481268182962460,-2.56175,-1.54328,0.611349
1481268182976555,-2.56368,-1.5407,0.612323
1481268182999064,-2.56554,-1.54301,0.612949
1481268183020142,-2.59487,-1.54419,0.63751
1481268183036110,-2.62852,-1.54321,0.668786
1481268183059068,-2.64493,-1.54465,0.682427
1481268183080079,-2.64501,-1.5418,0.677218
1481268183096617,-2.66455,-1.54369,0.693167
1481268183118619,-2.65655,-1.54176,0.677176
1481268183139691,-2.59499,-1.54314,0.602114
1481268183155697,-2.57768,-1.54518,0.572239
1481268183185821,-2.57928,-1.54637,0.564521
1481268183200238,-2.605,-1.54906,0.587402
1481268183215241,-2.50501,-1.54761,0.477701
1481268183239245,-2.38762,-1.55024,0.354632
1481268183260246,-2.35105,-1.55228,0.315606
1481268183275796,-2.27125,-1.54913,0.232944
1481268183298310,-2.21123,-1.55577,0.164578
1481268183322309,-2.18954,-1.55427,0.138499
1481268183337309,-2.17325,-1.55069,0.12333
1481268183358310,-2.10885,-1.55096,0.0554043
1481268183380821,-2.09439,-1.56233,0.0301995
1481268183397334,-2.07389,-1.55433,0.00601236
1481268183418331,-2.07189,-1.55443,-0.00473922
1481268183440336,-2.13628,-1.55378,0.0510132
1481268183456334,-2.11435,-1.55887,0.0144334
1481268183478350,-2.00501,-1.55998,-0.107256
1481268183500100,-1.96669,-1.5583,-0.153832
1481268183524025,-1.93823,-1.56071,-0.197703
1481268183546056,-2.03705,-1.55665,-0.101591
1481268183562027,-2.01083,-1.56149,-0.141627
1481268183583147,-1.95337,-1.55294,-0.202116
1481268183598503,-1.99107,-1.55519,-0.173993
1481268183620462,-2.03214,-1.55886,-0.141455
1481268183643495,-2.06174,-1.55527,-0.118873
1481268183658543,-2.09457,-1.55579,-0.0949894
1481268183681019,-2.11965,-1.55434,-0.0764566
1481268183710993,-2.10099,-1.55258,-0.101536
1481268183717989,-2.07531,-1.55745,-0.141188
1481268183741039,-1.94483,-1.55889,-0.28661
1481268183763009,-1.94193,-1.56674,-0.30819
1481268183778503,-1.65281,-1.56274,-0.615737
1481268183800624,-1.57704,-1.55766,-0.703892
1481268183823574,-1.42489,-1.55702,-0.871921
1481268183837613,-1.55668,-1.55575,-0.746469
1481268183860547,-1.43184,-1.55821,-0.889276
1481268183883071,-1.37566,-1.5708,-0.965144
1481268183898010,-1.31124,-1.55446,-1.02453
1481268183920996,-1.3498,-1.56034,-1.00424
1481268183942938,-1.38577,-1.55753,-0.979054
1481268183958035,-1.39081,-1.55849,-0.989714
1481268183981009,-1.3834,-1.55581,-1.00943
1481268184003539,-1.37599,-1.55778,-1.03629
1481268184017484,-1.55826,-1.55275,-0.867123
1481268184056580,-1.56071,-1.55777,-0.891073
1481268184071500,-1.62359,-1.5554,-0.844967
1481268184078560,-1.66209,-1.56255,-0.836275
1481268184107713,-1.84506,-1.55288,-0.665789
1481268184122688,-1.97132,-1.55439,-0.56268
1481268184137687,-1.9775,-1.55213,-0.578885
1481268184160610,-2.08789,-1.54723,-0.48773
1481268184183131,-2.12577,-1.54919,-0.471012
1481268184197991,-2.1758,-1.5466,-0.435093
1481268184221054,-2.07592,-1.5506,-0.559372
1481268184242993,-2.04463,-1.54661,-0.602587
1481268184259990,-2.05535,-1.54792,-0.609278
1481268184281034,-2.03863,-1.54763,-0.639089
1481268184303012,-2.03814,-1.54763,-0.654036
1481268184319011,-2.07536,-1.54598,-0.627524
1481268184341053,-2.06562,-1.54519,-0.647769
1481268184363011,-2.07691,-1.54445,-0.646464
1481268184382025,-2.07794,-1.54611,-0.656562
1481268184401048,-2.11249,-1.54557,-0.631158
1481268184423032,-2.15521,-1.54447,-0.600717
1481268184439099,-2.25278,-1.54221,-0.51382
1481268184468035,-2.29829,-1.54309,-0.480531
1481268184490627,-2.34579,-1.54052,-0.440951
1481268184499691,-2.38588,-1.54118,-0.417838
1481268184520708,-2.35325,-1.53925,-0.465322
1481268184544690,-2.33352,-1.53943,-0.499966
1481268184566694,-2.33535,-1.5407,-0.511032
1481268184580818,-2.37283,-1.54017,-0.483214
1481268184602945,-2.38555,-1.53763,-0.481191
1481268184627852,-2.38053,-1.53923,-0.501408
1481268184640908,-2.38037,-1.53718,-0.509764
1481268184662932,-2.39766,-1.53556,-0.499114
1481268184679867,-2.43022,-1.53706,-0.477475
1481268184701024,-2.46109,-1.5366,-0.457198
1481268184723101,-2.46569,-1.53435,-0.460217
1481268184739085,-2.46156,-1.53477,-0.475222
1481268184761062,-2.45437,-1.53426,-0.492486
1481268184783136,-2.45423,-1.53524,-0.502766
1481268184799307,-2.4505,-1.53668,-0.517586
1481268184828301,-2.41005,-1.5379,-0.570649
1481268184843303,-2.41398,-1.53849,-0.577221
1481268184860303,-2.42115,-1.53684,-0.577293
1481268184880820,-2.41927,-1.53805,-0.589493
1481268184903439,-2.39889,-1.5406,-0.622653
1481268184919383,-2.36457,-1.54072,-0.666867
1481268184940454,-2.35077,-1.53848,-0.687229
1481268184963373,-2.34932,-1.54345,-0.703883
1481268184979920,-2.36017,-1.54108,-0.697807
1481268185000449,-2.37709,-1.53793,-0.685314
1481268185023502,-2.40868,-1.53939,-0.663663
1481268185039438,-2.38832,-1.54247,-0.694592
1481268185060442,-2.32412,-1.54186,-0.764455
1481268185083485,-2.25864,-1.54234,-0.837333
1481268185098563,-2.23648,-1.54036,-0.86351
1481268185120510,-2.26892,-1.53701,-0.831663
1481268185143554,-2.34337,-1.53505,-0.762717
1481268185158527,-2.43138,-1.53424,-0.680328
1481268185182093,-2.51352,-1.53164,-0.600798
1481268185203105,-2.58981,-1.52924,-0.527657
1481268185219102,-2.65744,-1.52931,-0.465329
1481268185242102,-2.71097,-1.52564,-0.413711
1481268185263108,-2.77217,-1.52185,-0.355098
1481268185279131,-2.81833,-1.52026,-0.315936
1481268185302121,-2.85166,-1.52153,-0.291696
1481268185323123,-2.88118,-1.52139,-0.268316
1481268185339128,-2.8983,-1.51757,-0.25601
1481268185368129,-2.91245,-1.51817,-0.248524
1481268185383137,-2.9035,-1.51851,-0.265147
1481268185399156,-2.90194,-1.51998,-0.271604
1481268185422157,-2.8931,-1.51844,-0.281822
1481268185443153,-2.88739,-1.51746,-0.290273
1481268185467155,-2.88487,-1.51658,-0.296519
1481268185482166,-2.89042,-1.51527,-0.295697
1481268185503234,-2.89934,-1.51546,-0.291637
1481268185519176,-2.91986,-1.51607,-0.277158
1481268185542184,-2.9303,-1.51272,-0.272993
1481268185563178,-2.93118,-1.51347,-0.283921
1481268185585755,-2.92333,-1.51396,-0.300732
1481268185602206,-2.91028,-1.51164,-0.324193
1481268185623285,-2.89551,-1.51144,-0.351907
1481268185647205,-2.88861,-1.51095,-0.369741
1481268185662268,-2.88584,-1.51185,-0.382475
1481268185683222,-2.87789,-1.51192,-0.402573
1481268185706113,-2.85643,-1.5128,-0.43393
1481268185723007,-2.83764,-1.51237,-0.456645
1481268185743008,-2.82194,-1.51308,-0.478221
1481268185766048,-2.80881,-1.51379,-0.500036
1481268185782024,-2.79793,-1.51456,-0.518006
1481268185803532,-2.78626,-1.51417,-0.533761
1481268185825535,-2.78234,-1.51304,-0.540737
1481268185841585,-2.76747,-1.51276,-0.561167
1481268185863600,-2.7607,-1.51451,-0.573397
1481268185879062,-2.76147,-1.51518,-0.575769
1481268185901632,-2.76268,-1.51547,-0.576974
1481268185923608,-2.75758,-1.51477,-0.583806
1481268185945650,-2.74917,-1.51591,-0.596061
1481268185961637,-2.74912,-1.51521,-0.598558
1481268185998687,-2.7539,-1.51485,-0.596217
1481268186012688,-2.75293,-1.51459,-0.599265
1481268186021690,-2.75138,-1.51519,-0.605106
1481268186042667,-2.74847,-1.5164,-0.614732
1481268186065665,-2.75543,-1.51536,-0.611035
1481268186081686,-2.76644,-1.51607,-0.605119
1481268186102702,-2.76954,-1.51468,-0.607813
1481268186125705,-2.75943,-1.51618,-0.629624
1481268186141767,-2.75863,-1.51643,-0.636711
1481268186164702,-2.74932,-1.51484,-0.651086
1481268186185807,-2.72687,-1.5147,-0.681951
1481268186201797,-2.72807,-1.51603,-0.690694
1481268186224798,-2.73828,-1.51399,-0.686501
1481268186245800,-2.74164,-1.51439,-0.69149
1481268186267797,-2.73762,-1.51466,-0.703996
1481268186290811,-2.73268,-1.51637,-0.715939
1481268186305822,-2.73649,-1.51439,-0.715435
1481268186321819,-2.75219,-1.51393,-0.706035
1481268186344824,-2.77434,-1.51427,-0.693205
1481268186365821,-2.80796,-1.51319,-0.666432
1481268186388833,-2.8174,-1.51144,-0.660167
1481268186404848,-2.81792,-1.51043,-0.662372
1481268186425850,-2.81703,-1.51132,-0.668371
1481268186440845,-2.80996,-1.51234,-0.680433
1481268186471846,-2.80745,-1.51199,-0.683741
1481268186485863,-2.80161,-1.51215,-0.689669
1481268186509871,-2.78815,-1.5161,-0.70654
1481268186530938,-2.77013,-1.51517,-0.723258
1481268186546876,-2.75141,-1.51636,-0.742826
1481268186569876,-2.73402,-1.51772,-0.760864
1481268186584940,-2.71458,-1.51872,-0.779997
1481268186605939,-2.69411,-1.5197,-0.800156
1481268186620969,-2.67224,-1.52243,-0.823651
1481268186644971,-2.64481,-1.5224,-0.849564
1481268186665912,-2.63428,-1.5231,-0.860156
1481268186681983,-2.63428,-1.5231,-0.860156
1481268186704799,-2.65064,-1.52554,-0.846056
1481268186725803,-2.65916,-1.52599,-0.837065
1481268186741773,-2.65916,-1.52599,-0.837065
1481268186770817,-2.67302,-1.52496,-0.820185
1481268186785940,-2.65836,-1.53013,-0.837144
1481268186801654,-2.66247,-1.53178,-0.83215
1481268186824655,-2.6646,-1.53591,-0.833423
1481268186845680,-2.53909,-1.54057,-0.965779
