timestamp,x,y,z,w
1481268171545838,0.649841,0.295898,0.632751,-0.2995
1481268171569842,0.649597,0.295898,0.632996,-0.299561
1481268171584846,0.648499,0.295227,0.634033,-0.300415
1481268171605846,0.647461,0.294617,0.634949,-0.301331
1481268171621348,0.647034,0.294312,0.635193,-0.301941
1481268171644350,0.648499,0.294373,0.634033,-0.30127
1481268171665855,0.649658,0.294922,0.632996,-0.300354
1481268171681356,0.650024,0.294922,0.63269,-0.300293
1481268171704859,0.649475,0.294312,0.633057,-0.301086
1481268171725862,0.649109,0.293945,0.633423,-0.301575
1481268171741363,0.648865,0.293762,0.633728,-0.301636
1481268171764867,0.648682,0.293762,0.634033,-0.301453
1481268171785453,0.648376,0.293579,0.634338,-0.301636
1481268171801378,0.647888,0.293335,0.634766,-0.302063
1481268171823958,0.647888,0.293396,0.634583,-0.302185
1481268171846896,0.647583,0.293518,0.634888,-0.302185
1481268171868955,0.647217,0.29364,0.635254,-0.302063
1481268171883896,0.646973,0.29364,0.635437,-0.302185
1481268171906404,0.646179,0.293396,0.636047,-0.302856
1481268171921430,0.645081,0.293091,0.637207,-0.303162
1481268171943433,0.644714,0.293152,0.637756,-0.302612
1481268171966489,0.644897,0.293396,0.637573,-0.302368
1481268171981435,0.644775,0.292908,0.637756,-0.302856
1481268172003434,0.643616,0.29248,0.638611,-0.303711
1481268172026544,0.64325,0.292297,0.638977,-0.303955
1481268172041481,0.642944,0.292236,0.639404,-0.303894
1481268172063481,0.642883,0.292236,0.639465,-0.303894
1481268172086516,0.64325,0.292175,0.638977,-0.304077
1481268172101483,0.642334,0.291992,0.639526,-0.305115
1481268172131577,0.642151,0.292114,0.639771,-0.30481
1481268172146644,0.642151,0.292114,0.639771,-0.30481
1481268172161644,0.641846,0.291992,0.640015,-0.305115
1481268172183582,0.641724,0.291992,0.640259,-0.304871
1481268172207094,0.642334,0.292297,0.639771,-0.304199
1481268172221103,0.6427,0.292236,0.639465,-0.304199
1481268172244171,0.642334,0.292175,0.639954,-0.304138
1481268172267106,0.642273,0.292114,0.639954,-0.304138
1481268172281111,0.642578,0.292297,0.639709,-0.303894
1481268172303110,0.642883,0.292297,0.639404,-0.303833
1481268172327164,0.642822,0.292236,0.639526,-0.303772
1481268172341161,0.642517,0.292114,0.639832,-0.303955
1481268172364228,0.643005,0.292114,0.639343,-0.303955
1481268172416678,0.643799,0.29248,0.638489,-0.30365
1481268172434188,0.644165,0.292725,0.638123,-0.303467
1481268172439193,0.644287,0.292908,0.638,-0.303345
1481268172450189,0.644531,0.29303,0.637634,-0.303345
1481268172468190,0.64502,0.293213,0.637146,-0.303223
1481268172483293,0.645325,0.293213,0.63678,-0.303345
1481268172507202,0.645813,0.292725,0.636292,-0.303833
1481268172527858,0.646484,0.29248,0.635742,-0.303833
1481268172543795,0.647095,0.292175,0.635132,-0.303955
1481268172566800,0.647522,0.291809,0.635254,-0.303223
1481268172587798,0.647705,0.29187,0.635681,-0.301941
1481268172610803,0.644592,0.291504,0.638367,-0.303223
1481268172626854,0.644592,0.291077,0.638611,-0.303162
1481268172656854,0.644287,0.291199,0.638794,-0.303284
1481268172672856,0.644104,0.290894,0.63916,-0.303223
1481268172694906,0.644165,0.290955,0.63916,-0.302979
1481268172708409,0.645203,0.291382,0.638123,-0.30249
1481268172723386,0.645874,0.291626,0.637451,-0.302185
1481268172746380,0.646118,0.291809,0.63739,-0.301697
1481268172768438,0.64624,0.291626,0.63739,-0.301575
1481268172783378,0.64624,0.291748,0.637573,-0.301086
1481268172806391,0.646545,0.291809,0.637451,-0.300659
1481268172828467,0.646545,0.291809,0.637451,-0.300659
1481268172843401,0.646484,0.292114,0.637451,-0.300537
1481268172866401,0.646362,0.292908,0.637329,-0.300415
1481268172896404,0.647278,0.292664,0.636414,-0.300476
1481268172903409,0.647827,0.292786,0.635925,-0.30011
1481268172926418,0.647339,0.292786,0.636414,-0.300293
1481268172949453,0.646851,0.292542,0.636841,-0.300659
1481268172979421,0.64679,0.292358,0.636841,-0.300903
1481268172986421,0.647156,0.292542,0.636475,-0.30072
1481268173009941,0.647156,0.292542,0.636475,-0.30072
1481268173023932,0.647156,0.292297,0.636475,-0.300964
1481268173052936,0.647522,0.292114,0.63623,-0.300842
1481268173069438,0.648621,0.292053,0.635315,-0.300537
1481268173083940,0.649719,0.291931,0.634521,-0.299988
1481268173106442,0.650574,0.292114,0.633911,-0.299255
1481268173129446,0.650757,0.291809,0.633911,-0.299011
1481268173150988,0.651062,0.291565,0.633667,-0.299133
1481268173168950,0.651489,0.291565,0.633179,-0.299194
1481268173189453,0.651794,0.291931,0.633057,-0.298523
1481268173211956,0.651855,0.292114,0.633118,-0.298157
1481268173226458,0.651794,0.29187,0.633179,-0.298401
1481268173249462,0.651428,0.291382,0.633728,-0.298401
1481268173263963,0.65155,0.291077,0.633911,-0.298096
1481268173286466,0.652466,0.29071,0.633667,-0.296936
1481268173309468,0.653564,0.289795,0.633606,-0.295532
1481268173323970,0.654358,0.288696,0.633728,-0.294495
1481268173346473,0.655029,0.288147,0.633606,-0.293945
1481268173369476,0.655945,0.287842,0.633301,-0.292847
1481268173390478,0.656921,0.287537,0.633118,-0.291321
1481268173406481,0.657532,0.286743,0.632996,-0.291077
1481268173429484,0.65863,0.286194,0.632629,-0.289856
1481268173450486,0.659851,0.285217,0.632751,-0.287842
1481268173466489,0.65979,0.283325,0.634033,-0.286926
1481268173489491,0.659607,0.281616,0.635254,-0.286438
1481268173511994,0.659058,0.280945,0.636108,-0.286255
1481268173526996,0.658386,0.28009,0.637207,-0.286255
1481268173549499,0.658142,0.279053,0.638245,-0.285522
1481268173570501,0.658142,0.277466,0.639343,-0.284668
1481268173586512,0.657837,0.276367,0.640747,-0.283264
1481268173609513,0.656921,0.275024,0.642273,-0.283325
1481268173630523,0.656555,0.274475,0.642822,-0.283325
1481268173646515,0.65741,0.273804,0.6427,-0.28241
1481268173669529,0.65741,0.273193,0.643005,-0.282227
1481268173690553,0.657471,0.272888,0.643066,-0.282288
1481268173706555,0.657959,0.272888,0.6427,-0.28186
1481268173728559,0.658142,0.272705,0.642639,-0.281799
1481268173750641,0.658142,0.272705,0.642761,-0.281555
1481268173767565,0.658264,0.272766,0.6427,-0.281372
1481268173788577,0.65863,0.272827,0.642395,-0.281128
1481268173813577,0.658997,0.272949,0.642029,-0.280884
1481268173825648,0.659058,0.272766,0.64209,-0.280884
1481268173848580,0.658813,0.272705,0.642334,-0.280884
1481268173872114,0.658752,0.272583,0.642517,-0.280762
1481268173886608,0.658752,0.272583,0.642517,-0.280762
1481268173908577,0.658997,0.272583,0.642273,-0.28064
1481268173931577,0.659058,0.272583,0.642273,-0.28064
1481268173945579,0.658447,0.272522,0.642822,-0.280884
1481268173968586,0.657715,0.272217,0.643494,-0.281372
1481268173991298,0.65686,0.27179,0.644287,-0.281982
1481268174006236,0.656311,0.271423,0.644775,-0.282471
1481268174029239,0.656311,0.271423,0.644775,-0.282471
1481268174052236,0.656067,0.271484,0.64502,-0.282349
1481268174074798,0.65564,0.271484,0.645386,-0.282532
1481268174088624,0.654968,0.271423,0.646118,-0.282593
1481268174112624,0.654236,0.271118,0.64679,-0.282898
1481268174125631,0.65332,0.270752,0.647705,-0.283264
1481268174148625,0.652832,0.270508,0.648193,-0.283508
1481268174172141,0.652832,0.270508,0.648193,-0.283508
1481268174186299,0.652832,0.270508,0.648193,-0.283508
1481268174208365,0.652649,0.270325,0.648438,-0.28363
1481268174232338,0.652344,0.27002,0.648743,-0.283936
1481268174246304,0.652283,0.269836,0.648743,-0.28418
1481268174269319,0.652283,0.269836,0.648743,-0.28418
1481268174291804,0.65271,0.269836,0.648376,-0.284058
1481268174305874,0.653137,0.269775,0.64801,-0.284058
1481268174335807,0.653687,0.269531,0.647522,-0.284119
1481268174342820,0.65448,0.269043,0.646973,-0.283875
1481268174364812,0.655212,0.268188,0.646851,-0.283264
1481268174387884,0.655701,0.266968,0.647339,-0.282166
1481268174401885,0.655823,0.265747,0.648315,-0.280884
1481268174440966,0.656494,0.26355,0.64917,-0.279419
1481268174447886,0.657776,0.260742,0.650269,-0.276428
1481268174461929,0.658875,0.25708,0.6521,-0.272888
1481268174484917,0.660889,0.251587,0.653809,-0.268982
1481268174507916,0.662354,0.247253,0.655945,-0.264343
1481268174523922,0.664307,0.242615,0.657349,-0.259949
1481268174544998,0.666626,0.236572,0.659302,-0.254639
1481268174568437,0.66925,0.231628,0.660217,-0.249939
1481268174583946,0.670654,0.227417,0.661682,-0.246094
1481268174604966,0.671936,0.223572,0.663269,-0.242004
1481268174635948,0.673584,0.219666,0.66449,-0.23761
1481268174643948,0.674744,0.216736,0.665588,-0.233826
1481268174664954,0.675476,0.213867,0.666931,-0.230408
1481268174687583,0.67627,0.210938,0.668396,-0.226563
1481268174710680,0.677185,0.207886,0.669861,-0.222351
1481268174724664,0.678467,0.205078,0.67041,-0.21936
1481268174747588,0.680298,0.201294,0.671082,-0.215027
1481268174762591,0.681702,0.196228,0.672852,-0.209595
1481268174784868,0.68335,0.189758,0.674927,-0.20343
1481268174807845,0.684998,0.183716,0.676697,-0.197632
1481268174823842,0.687195,0.178589,0.67749,-0.191956
1481268174844843,0.689514,0.172852,0.678406,-0.185425
1481268174868418,0.69165,0.167053,0.679321,-0.179382
1481268174882216,0.694458,0.159607,0.680115,-0.172119
1481268174905249,0.697937,0.151733,0.680298,-0.164429
1481268174928305,0.69989,0.144592,0.680969,-0.159485
1481268174942297,0.700806,0.139832,0.68219,-0.154297
1481268174964222,0.702515,0.134216,0.682617,-0.14978
1481268174988267,0.702698,0.129639,0.684326,-0.144775
1481268175002345,0.704285,0.124695,0.684631,-0.140259
1481268175025302,0.705627,0.1203,0.685059,-0.134705
1481268175048268,0.706421,0.115723,0.685852,-0.130859
1481268175062276,0.70697,0.111084,0.68689,-0.126221
1481268175085080,0.70752,0.106689,0.687866,-0.121887
1481268175108173,0.708374,0.102112,0.688416,-0.117188
1481268175130085,0.708557,0.0980225,0.689453,-0.113525
1481268175145083,0.708618,0.0944214,0.690491,-0.109924
1481268175168095,0.708862,0.0891113,0.691772,-0.104675
1481268175182271,0.708984,0.0843506,0.69281,-0.100586
1481268175205244,0.709778,0.0794067,0.693237,-0.0962524
1481268175228259,0.710083,0.0749512,0.694031,-0.09198
1481268175242195,0.710205,0.0701904,0.694946,-0.0874634
1481268175265257,0.710938,0.0665894,0.695007,-0.0838623
1481268175287778,0.711731,0.0605469,0.695374,-0.0782471
1481268175302778,0.712463,0.0551758,0.695679,-0.0728149
1481268175324849,0.71283,0.0500488,0.696167,-0.0678711
1481268175347781,0.713318,0.0454102,0.696472,-0.0632935
1481268175362764,0.713013,0.0393066,0.697632,-0.057373
1481268175384802,0.711792,0.0333862,0.699646,-0.0515747
1481268175407890,0.712463,0.0273438,0.699585,-0.0459595
1481268175422804,0.713013,0.020752,0.699707,-0.0395508
1481268175453807,0.713562,0.0147705,0.699585,-0.0335693
1481268175467825,0.7146,0.00805664,0.698914,-0.0265503
1481268175481839,0.71582,0.0010376,0.697937,-0.019165
1481268175513834,0.716553,-0.00732422,0.697327,-0.0109863
1481268175527838,0.717346,-0.0152588,0.696472,-0.00341797
1481268175550837,0.717896,-0.0234375,0.695679,0.0045166
1481268175564836,0.719299,-0.0302734,0.693909,0.0111084
1481268175587525,0.718811,-0.0383301,0.693787,0.0192261
1481268175610620,0.718506,-0.0458374,0.69342,0.0264282
1481268175624584,0.717651,-0.0527954,0.693542,0.0336304
1481268175647511,0.717468,-0.0592041,0.69281,0.0404663
1481268175670520,0.717041,-0.0657349,0.692261,0.046814
1481268175685111,0.716736,-0.0723877,0.691467,0.0534058
1481268175707106,0.716309,-0.0771484,0.690979,0.0583496
1481268175722137,0.71521,-0.0827637,0.690979,0.06427
1481268175746063,0.713745,-0.0892334,0.69104,0.0708618
1481268175767553,0.713562,-0.0946045,0.689941,0.0761108
1481268175791063,0.712646,-0.100952,0.68927,0.0824585
1481268175805072,0.711731,-0.107544,0.688477,0.0883789
1481268175827065,0.710754,-0.113037,0.687866,0.093811
1481268175850066,0.710083,-0.117188,0.687256,0.0983887
1481268175865065,0.709229,-0.123474,0.686096,0.104431
1481268175889090,0.707886,-0.130554,0.68512,0.111328
1481268175910168,0.706604,-0.136841,0.684204,0.117493
1481268175925168,0.706177,-0.141785,0.682861,0.121826
1481268175947089,0.705566,-0.146729,0.681702,0.126099
1481268175970773,0.704712,-0.152283,0.680359,0.131104
1481268175984230,0.704346,-0.156982,0.678955,0.134827
1481268176007327,0.702698,-0.16272,0.678162,0.140503
1481268176030230,0.701111,-0.168396,0.677307,0.145752
1481268176044788,0.700439,-0.173401,0.67572,0.150574
1481268176067319,0.69873,-0.179688,0.674561,0.156311
1481268176090955,0.696472,-0.186768,0.673157,0.163696
1481268176104958,0.694519,-0.192505,0.672241,0.169067
1481268176126936,0.692688,-0.199097,0.670715,0.174988
1481268176150901,0.690918,-0.204895,0.669189,0.18103
1481268176164862,0.689026,-0.211365,0.667175,0.187927
1481268176187376,0.687134,-0.217773,0.665405,0.193787
1481268176210380,0.685059,-0.22406,0.663879,0.19928
1481268176224381,0.682495,-0.23175,0.66156,0.206848
1481268176247379,0.679321,-0.240906,0.65863,0.215942
1481268176271009,0.676819,-0.249573,0.655151,0.224304
1481268176284519,0.672913,-0.258606,0.652832,0.232483
1481268176307529,0.669556,-0.266724,0.650024,0.240723
1481268176330519,0.665771,-0.276001,0.646729,0.249512
1481268176344467,0.662048,-0.286255,0.642395,0.258972
1481268176367483,0.658264,-0.294617,0.638611,0.268188
1481268176390557,0.654846,-0.302856,0.634888,0.276184
1481268176404489,0.650818,-0.310608,0.631775,0.28418
1481268176427495,0.647583,-0.318604,0.627686,0.291687
1481268176450560,0.643738,-0.326538,0.624573,0.298035
1481268176464493,0.640015,-0.333618,0.621643,0.304321
1481268176487521,0.636108,-0.34137,0.617493,0.312195
1481268176510514,0.632324,-0.348938,0.613342,0.31958
1481268176532516,0.629272,-0.354797,0.610352,0.324829
1481268176547520,0.62677,-0.360474,0.606812,0.329956
1481268176579091,0.623718,-0.365662,0.604004,0.335266
1481268176584535,0.619934,-0.37146,0.601196,0.340881
1481268176607540,0.617065,-0.376526,0.598267,0.345642
1481268176630541,0.613586,-0.382324,0.595032,0.351074
1481268176644539,0.610718,-0.387939,0.591125,0.356445
1481268176667547,0.606323,-0.394714,0.58728,0.362732
1481268176689562,0.602173,-0.401428,0.58313,0.368958
1481268176705558,0.598328,-0.406799,0.580078,0.374084
1481268176727559,0.595032,-0.412354,0.57666,0.37854
1481268176749644,0.590576,-0.418823,0.572632,0.384521
1481268176764574,0.583984,-0.426941,0.567444,0.393127
1481268176795242,0.578796,-0.433777,0.562744,0.400024
1481268176818316,0.574463,-0.440186,0.558228,0.40564
1481268176825287,0.568909,-0.447815,0.552002,0.413513
1481268176847241,0.56427,-0.454285,0.546692,0.419922
1481268176869823,0.558411,-0.46167,0.541687,0.426086
1481268176884919,0.553589,-0.467773,0.536743,0.431946
1481268176906829,0.545715,-0.476501,0.530212,0.440308
1481268176929831,0.538879,-0.484314,0.523926,0.447815
1481268176944838,0.532715,-0.490906,0.519409,0.453125
1481268176967427,0.52771,-0.496521,0.514099,0.458923
1481268176989603,0.52124,-0.503174,0.508667,0.465149
1481268177004661,0.515747,-0.50885,0.502747,0.471436
1481268177027670,0.509827,-0.514832,0.497009,0.477417
1481268177049698,0.505676,-0.51947,0.492432,0.481567
1481268177064668,0.500183,-0.525146,0.486389,0.487244
1481268177087634,0.49353,-0.531616,0.479675,0.493652
1481268177111699,0.485229,-0.538696,0.471863,0.501587
1481268177132644,0.478394,-0.544556,0.465332,0.507935
1481268177147638,0.472046,-0.549866,0.459839,0.513123
1481268177170239,0.465271,-0.555176,0.453796,0.518982
1481268177184938,0.458069,-0.560974,0.446899,0.525085
1481268177207004,0.450867,-0.567505,0.439209,0.530762
1481268177229940,0.443726,-0.572754,0.433228,0.536011
1481268177252939,0.438171,-0.577026,0.427734,0.540405
1481268177267953,0.434387,-0.580322,0.423523,0.543213
1481268177289459,0.42926,-0.585022,0.418396,0.546265
1481268177313501,0.422913,-0.59021,0.411865,0.550537
1481268177327529,0.417725,-0.594116,0.406494,0.554321
1481268177349462,0.412354,-0.597656,0.401794,0.557922
1481268177373008,0.405884,-0.601624,0.395996,0.5625
1481268177387585,0.398254,-0.606384,0.389221,0.567566
1481268177409517,0.392395,-0.610107,0.38385,0.57135
1481268177433553,0.387207,-0.613464,0.378662,0.574707
1481268177455519,0.379089,-0.61792,0.370972,0.580322
1481268177470096,0.370361,-0.622253,0.363953,0.585754
1481268177492682,0.365356,-0.624512,0.360107,0.588928
1481268177508614,0.362061,-0.62616,0.356934,0.591125
1481268177529612,0.360352,-0.627197,0.355103,0.592163
1481268177552621,0.359375,-0.627747,0.354492,0.592468
1481268177567693,0.359741,-0.627991,0.354004,0.592346
1481268177590320,0.359558,-0.628235,0.35376,0.592346
1481268177612283,0.359558,-0.628174,0.35376,0.592346
1481268177627359,0.359619,-0.628174,0.353333,0.592651
1481268177650333,0.359253,-0.628418,0.35321,0.592651
1481268177672381,0.359253,-0.628479,0.352905,0.592712
1481268177690423,0.358337,-0.629028,0.352234,0.59314
1481268177709514,0.356995,-0.629639,0.351196,0.593933
1481268177732433,0.355103,-0.630859,0.349487,0.594788
1481268177747428,0.353027,-0.631958,0.347473,0.596008
1481268177769950,0.350647,-0.632935,0.345581,0.597473
1481268177792110,0.347656,-0.633728,0.343689,0.599487
1481268177807033,0.343689,-0.635864,0.339722,0.601746
1481268177830032,0.33728,-0.638794,0.334412,0.605225
1481268177852113,0.331116,-0.641357,0.328796,0.609009
1481268177867063,0.324829,-0.64386,0.323242,0.612732
1481268177889799,0.319153,-0.645752,0.319031,0.615906
1481268177912773,0.316284,-0.646973,0.317261,0.617004
1481268177927797,0.311462,-0.649414,0.312988,0.61908
1481268177949798,0.303894,-0.653381,0.305115,0.622559
1481268177972307,0.297058,-0.656677,0.298645,0.625549
1481268177987317,0.291016,-0.658936,0.293213,0.62854
1481268178010354,0.285339,-0.660889,0.288208,0.631409
1481268178032343,0.280945,-0.663086,0.282776,0.633545
1481268178047321,0.27655,-0.665283,0.27832,0.635132
1481268178069912,0.271362,-0.667358,0.273376,0.63739
1481268178092442,0.266296,-0.668823,0.26886,0.639893
1481268178107501,0.261841,-0.670898,0.263916,0.641541
1481268178129426,0.256836,-0.672668,0.259155,0.643677
1481268178152433,0.25177,-0.674744,0.254395,0.645447
1481268178167491,0.247742,-0.676392,0.25,0.646973
1481268178190114,0.242493,-0.678589,0.244446,0.648804
1481268178212113,0.236877,-0.680725,0.23877,0.650757
1481268178227181,0.230896,-0.682495,0.232544,0.653259
1481268178250117,0.225037,-0.684265,0.227539,0.655212
1481268178272779,0.219543,-0.685913,0.222412,0.657104
1481268178286869,0.2146,-0.6875,0.217224,0.658875
1481268178309802,0.209106,-0.689453,0.210815,0.660645
1481268178332803,0.20343,-0.691528,0.205139,0.662048
1481268178347810,0.197754,-0.693298,0.199951,0.663513
1481268178370358,0.192139,-0.694763,0.194397,0.665222
1481268178392832,0.185669,-0.696411,0.187744,0.667236
1481268178407832,0.178894,-0.698364,0.181091,0.668884
1481268178429833,0.171265,-0.7005,0.173767,0.670593
1481268178451835,0.163879,-0.702209,0.165833,0.672729
1481268178467839,0.156006,-0.703979,0.158142,0.674561
1481268178489421,0.148499,-0.70575,0.151367,0.675964
1481268178512417,0.140991,-0.707031,0.144409,0.677795
1481268178529418,0.132202,-0.708252,0.135864,0.680054
1481268178549418,0.123291,-0.7099,0.127014,0.681702
1481268178572468,0.116333,-0.710754,0.120239,0.683228
1481268178588561,0.10968,-0.711609,0.113037,0.684692
1481268178609557,0.104614,-0.711914,0.107849,0.685974
1481268178632558,0.0996094,-0.711975,0.102966,0.687439
1481268178648562,0.0912476,-0.712524,0.0948486,0.689209
1481268178670088,0.0830688,-0.713135,0.0869141,0.690613
1481268178692708,0.0757446,-0.713806,0.0800171,0.691589
1481268178708621,0.0673218,-0.713745,0.0723877,0.693359
1481268178729621,0.0599365,-0.713989,0.065979,0.694458
1481268178752620,0.0546265,-0.7146,0.06073,0.694702
1481268178776710,0.0507202,-0.7146,0.0570679,0.695374
1481268178798121,0.0460205,-0.715027,0.0522461,0.695618
1481268178812045,0.0407104,-0.715271,0.0466919,0.696106
1481268178829049,0.0339355,-0.715271,0.0397339,0.696899
1481268178850126,0.0274658,-0.716736,0.0346069,0.695984
1481268178872570,0.0244751,-0.71698,0.0303955,0.695984
1481268178894629,0.0197754,-0.716919,0.026062,0.696411
1481268178909733,0.0132446,-0.71759,0.0206909,0.696045
1481268178932626,0.00787354,-0.718079,0.0144653,0.69574
1481268178954628,0.00262451,-0.717407,0.0088501,0.696594
1481268178970302,-0.00323486,-0.716736,0.00372314,0.697327
1481268178991954,-0.00793457,-0.716675,-0.00109863,0.697327
1481268179014878,-0.0120239,-0.716309,-0.00585938,0.697693
1481268179029879,-0.0166016,-0.715637,-0.0105591,0.698242
1481268179052917,-0.020752,-0.716125,-0.0142212,0.697571
1481268179074895,-0.0256958,-0.715027,-0.0192871,0.698364
1481268179090257,-0.0322266,-0.714233,-0.0250854,0.698669
1481268179112201,-0.0374756,-0.713989,-0.0302734,0.698486
1481268179135260,-0.0440063,-0.713379,-0.0366211,0.698425
1481268179150263,-0.0496216,-0.712952,-0.0426636,0.69812
1481268179172770,-0.0516357,-0.712158,-0.0454712,0.698669
1481268179194801,-0.0524292,-0.711243,-0.046875,0.699402
1481268179209798,-0.0547485,-0.711182,-0.0489502,0.699158
1481268179232770,-0.0596924,-0.710571,-0.0528564,0.699097
1481268179254799,-0.0632935,-0.710205,-0.055542,0.698975
1481268179270381,-0.0635986,-0.7099,-0.0557861,0.699219
1481268179291894,-0.0637817,-0.709839,-0.0552979,0.699341
1481268179314951,-0.0640869,-0.709351,-0.0549316,0.699768
1481268179329893,-0.0645142,-0.708557,-0.0544434,0.700623
1481268179353894,-0.0648804,-0.707947,-0.0543823,0.701233
1481268179374909,-0.0648804,-0.70697,-0.0543213,0.702209
1481268179389922,-0.0644531,-0.70575,-0.0545044,0.70343
1481268179411920,-0.0640259,-0.704895,-0.0547485,0.704285
1481268179435987,-0.0640259,-0.703979,-0.0547485,0.7052
1481268179450970,-0.0640869,-0.703491,-0.0552368,0.705627
1481268179472449,-0.0638428,-0.703125,-0.0559082,0.705994
1481268179494571,-0.0638428,-0.702148,-0.0558472,0.70697
1481268179511572,-0.0637817,-0.702942,-0.0562134,0.706116
1481268179540671,-0.0631714,-0.704529,-0.0568848,0.70459
1481268179554600,-0.0626221,-0.707153,-0.0581055,0.701904
1481268179571620,-0.0623779,-0.710999,-0.0597534,0.697876
1481268179592767,-0.0643311,-0.711609,-0.0614014,0.696899
1481268179614736,-0.0656128,-0.712036,-0.0612793,0.69635
1481268179638718,-0.0666504,-0.710876,-0.060791,0.69751
1481268179652768,-0.0669556,-0.710754,-0.0605469,0.697632
1481268179674832,-0.0670166,-0.711243,-0.0609131,0.697144
1481268179691340,-0.0672607,-0.710815,-0.0609131,0.69751
1481268179712345,-0.0675049,-0.709106,-0.0611572,0.699158
1481268179736345,-0.067749,-0.708008,-0.0616455,0.700256
1481268179751348,-0.0680542,-0.707275,-0.0620728,0.700928
1481268179772354,-0.0684204,-0.706482,-0.062561,0.701599
1481268179795267,-0.0686035,-0.705872,-0.0627441,0.702209
1481268179811206,-0.0687866,-0.705505,-0.0632935,0.702515
1481268179832210,-0.0687866,-0.705261,-0.0641479,0.702698
1481268179855240,-0.0688477,-0.703186,-0.0645142,0.704712
1481268179871300,-0.069397,-0.701721,-0.0646973,0.706116
1481268179892843,-0.0697021,-0.700623,-0.0645752,0.707153
1481268179914867,-0.069519,-0.699463,-0.0648193,0.708313
1481268179936860,-0.0695801,-0.698975,-0.0650635,0.708801
1481268179951853,-0.0695801,-0.699219,-0.0651245,0.708496
1481268179974861,-0.069519,-0.698792,-0.0653687,0.708923
1481268179990962,-0.0698853,-0.697632,-0.0661011,0.709961
1481268180012919,-0.0695801,-0.697632,-0.0669556,0.709961
1481268180034904,-0.0700073,-0.698792,-0.0678101,0.708618
1481268180050938,-0.0719604,-0.699158,-0.0707397,0.707825
1481268180072522,-0.0734253,-0.700317,-0.072876,0.706299
1481268180095080,-0.076355,-0.700439,-0.0762939,0.705505
1481268180111076,-0.0787964,-0.700623,-0.0776978,0.704895
1481268180132076,-0.081604,-0.701721,-0.0796509,0.703308
1481268180163078,-0.0842285,-0.702209,-0.0819702,0.702209
1481268180171596,-0.088562,-0.702576,-0.0856323,0.700867
1481268180192703,-0.0938721,-0.703064,-0.0895386,0.699219
1481268180214704,-0.0982056,-0.702087,-0.0939941,0.698975
1481268180231682,-0.102478,-0.701477,-0.0980225,0.698425
1481268180252648,-0.105164,-0.700256,-0.10022,0.698914
1481268180275156,-0.106445,-0.698975,-0.100525,0.700012
1481268180291329,-0.1073,-0.698242,-0.100769,0.700562
1481268180312331,-0.107666,-0.698669,-0.101013,0.700073
1481268180335370,-0.107849,-0.699524,-0.101379,0.699158
1481268180351333,-0.109863,-0.697266,-0.103943,0.700684
1481268180372346,-0.110413,-0.696777,-0.105103,0.700928
1481268180394578,-0.111084,-0.698364,-0.106018,0.699097
1481268180411577,-0.113586,-0.699097,-0.108032,0.697632
1481268180448578,-0.118591,-0.69751,-0.112976,0.697632
1481268180464579,-0.123352,-0.697021,-0.116882,0.696655
1481268180486624,-0.128052,-0.697693,-0.120178,0.69458
1481268180493814,-0.136475,-0.69574,-0.128601,0.69342
1481268180514813,-0.145264,-0.692444,-0.138672,0.692993
1481268180545814,-0.15155,-0.691528,-0.146912,0.690857
1481268180569817,-0.15863,-0.688538,-0.155396,0.690369
1481268180577325,-0.16748,-0.68634,-0.163635,0.688599
1481268180606075,-0.174255,-0.684021,-0.1698,0.687683
1481268180615067,-0.178406,-0.683044,-0.175049,0.686279
1481268180635069,-0.182007,-0.685059,-0.17981,0.682129
1481268180665072,-0.187256,-0.684265,-0.183105,0.680542
1481268180682708,-0.190918,-0.685059,-0.185547,0.678162
1481268180705256,-0.195984,-0.682678,-0.190674,0.677673
1481268180727265,-0.201843,-0.68103,-0.194824,0.676453
1481268180756338,-0.206116,-0.680176,-0.197998,0.675049
1481268180757260,-0.209106,-0.679871,-0.200867,0.673645
1481268180777806,-0.211731,-0.679199,-0.203491,0.672668
1481268180793409,-0.212952,-0.67926,-0.204529,0.671936
1481268180815347,-0.215698,-0.680176,-0.206055,0.669617
1481268180837346,-0.219788,-0.680115,-0.20874,0.667542
1481268180853407,-0.223022,-0.677795,-0.213074,0.667419
1481268180874860,-0.225403,-0.675537,-0.216736,0.667786
1481268180897531,-0.229309,-0.674622,-0.219788,0.666382
1481268180913534,-0.236267,-0.67218,-0.22583,0.664307
1481268180934613,-0.243652,-0.669189,-0.233643,0.662048
1481268180957534,-0.248291,-0.668457,-0.238464,0.659302
1481268180974125,-0.252991,-0.667847,-0.243286,0.656372
1481268180997663,-0.259888,-0.664185,-0.250916,0.654541
1481268181017710,-0.268372,-0.661865,-0.258301,0.650513
1481268181041667,-0.27533,-0.661011,-0.264282,0.646118
1481268181054671,-0.280762,-0.658325,-0.269897,0.644165
1481268181077714,-0.289124,-0.653381,-0.278992,0.641663
1481268181093292,-0.296082,-0.649841,-0.286255,0.638916
1481268181115256,-0.299866,-0.648071,-0.290649,0.636902
1481268181137194,-0.304565,-0.644043,-0.295471,0.636597
1481268181153291,-0.307678,-0.641235,-0.298889,0.636292
1481268181175348,-0.308167,-0.640991,-0.299561,0.635986
1481268181196897,-0.308044,-0.640869,-0.299744,0.636108
1481268181213898,-0.308289,-0.640442,-0.300232,0.636169
1481268181234898,-0.308655,-0.64093,-0.300354,0.635437
1481268181257943,-0.30957,-0.641418,-0.300903,0.634277
1481268181273911,-0.310486,-0.640381,-0.301941,0.634338
1481268181296423,-0.311096,-0.639771,-0.302551,0.634338
1481268181317486,-0.312561,-0.639893,-0.303528,0.633057
1481268181333483,-0.315002,-0.639343,-0.305054,0.631653
1481268181356420,-0.3172,-0.638062,-0.306824,0.630981
1481268181377430,-0.317749,-0.637634,-0.306641,0.631226
1481268181393505,-0.31842,-0.636963,-0.306396,0.631714
1481268181416442,-0.318848,-0.636047,-0.306152,0.632568
1481268181437442,-0.319641,-0.635071,-0.30658,0.632935
1481268181453462,-0.322205,-0.633667,-0.309204,0.631775
1481268181476951,-0.323364,-0.632751,-0.309998,0.631653
1481268181497006,-0.325439,-0.630859,-0.312134,0.63147
1481268181514011,-0.328247,-0.629822,-0.314758,0.6297
1481268181536047,-0.33252,-0.62854,-0.318787,0.62677
1481268181557090,-0.33728,-0.626831,-0.322937,0.623779
1481268181581546,-0.34436,-0.622986,-0.329468,0.620361
1481268181596510,-0.349304,-0.620056,-0.335327,0.61731
1481268181617588,-0.358276,-0.615906,-0.342102,0.61261
1481268181633511,-0.366333,-0.607849,-0.352295,0.610107
1481268181656515,-0.369202,-0.604187,-0.356079,0.609802
1481268181677574,-0.371338,-0.601501,-0.358948,0.609497
1481268181693596,-0.37262,-0.60022,-0.360413,0.609131
1481268181716581,-0.375,-0.598755,-0.362854,0.607666
1481268181737656,-0.377563,-0.597412,-0.36615,0.605408
1481268181753579,-0.381775,-0.595337,-0.369812,0.602661
1481268181778157,-0.385437,-0.594299,-0.373047,0.599243
1481268181797512,-0.390747,-0.592468,-0.37738,0.59491
1481268181813542,-0.395081,-0.590332,-0.380737,0.592041
1481268181836514,-0.397522,-0.589233,-0.383423,0.589783
1481268181857515,-0.399963,-0.588623,-0.385681,0.587219
1481268181874024,-0.403259,-0.587097,-0.388,0.584961
1481268181896584,-0.407227,-0.584351,-0.392395,0.582031
1481268181925604,-0.411072,-0.581909,-0.395935,0.579407
1481268181941582,-0.414246,-0.579224,-0.399048,0.577637
1481268181956587,-0.417358,-0.576904,-0.402832,0.575134
1481268181977597,-0.420898,-0.573792,-0.406982,0.572754
1481268181993638,-0.42395,-0.571777,-0.410278,0.570129
1481268182016636,-0.426392,-0.57019,-0.412231,0.568481
1481268182037718,-0.430847,-0.567322,-0.416443,0.564941
1481268182059721,-0.436401,-0.562683,-0.422241,0.560974
1481268182078359,-0.442322,-0.558105,-0.427917,0.556641
1481268182105981,-0.446838,-0.554993,-0.432495,0.552551
1481268182113979,-0.452209,-0.551697,-0.43689,0.547974
1481268182143981,-0.457703,-0.547485,-0.442261,0.543335
1481268182157062,-0.463379,-0.543579,-0.446716,0.538818
1481268182174080,-0.468262,-0.539368,-0.451172,0.535095
1481268182196587,-0.474182,-0.533752,-0.457336,0.530273
1481268182217585,-0.480652,-0.52887,-0.462952,0.524414
1481268182239586,-0.486267,-0.523682,-0.468689,0.519287
1481268182256588,-0.491638,-0.519531,-0.471497,0.515869
1481268182277600,-0.495911,-0.515442,-0.475403,0.512207
1481268182299615,-0.501343,-0.511475,-0.47998,0.506714
1481268182316612,-0.506897,-0.505371,-0.487122,0.500427
1481268182338613,-0.512512,-0.500488,-0.491455,0.4953
1481268182359626,-0.51825,-0.495728,-0.495605,0.490051
1481268182376623,-0.525757,-0.487183,-0.50238,0.483643
1481268182406638,-0.529846,-0.48053,-0.509338,0.478577
1481268182419688,-0.534058,-0.478027,-0.512695,0.472778
1481268182436638,-0.539978,-0.471741,-0.51825,0.466187
1481268182459638,-0.543457,-0.464722,-0.524963,0.46167
1481268182480149,-0.545654,-0.461853,-0.527405,0.459229
1481268182496659,-0.548706,-0.457275,-0.531128,0.455811
1481268182518663,-0.549683,-0.455811,-0.532288,0.454773
1481268182539740,-0.551025,-0.454407,-0.53363,0.452942
1481268182556663,-0.553406,-0.452026,-0.535339,0.450439
1481268182579218,-0.555847,-0.447571,-0.538635,0.447876
1481268182601243,-0.559326,-0.442322,-0.541992,0.444763
1481268182616219,-0.562744,-0.437805,-0.545166,0.440979
1481268182639255,-0.564392,-0.435059,-0.548645,0.437378
1481268182663236,-0.567505,-0.432007,-0.549927,0.434631
1481268182676801,-0.57074,-0.427673,-0.553101,0.430725
1481268182698811,-0.572937,-0.424011,-0.55603,0.427612
1481268182727815,-0.574951,-0.422058,-0.557495,0.424927
1481268182736811,-0.576599,-0.421448,-0.557861,0.422852
1481268182758816,-0.577698,-0.420959,-0.55835,0.421204
1481268182779827,-0.57843,-0.421204,-0.558838,0.41925
1481268182795838,-0.580322,-0.419556,-0.559387,0.417603
1481268182818836,-0.581909,-0.417847,-0.560791,0.415161
1481268182839950,-0.584229,-0.415894,-0.56189,0.412354
1481268182855881,-0.587341,-0.411499,-0.564758,0.408447
1481268182878921,-0.589844,-0.407959,-0.567566,0.40448
1481268182899557,-0.592651,-0.403381,-0.570557,0.400696
1481268182916459,-0.594482,-0.399475,-0.573547,0.397644
1481268182940461,-0.595703,-0.397827,-0.573914,0.396973
1481268182962460,-0.596191,-0.39679,-0.574463,0.396484
1481268182976555,-0.596252,-0.396545,-0.574707,0.396179
1481268182999064,-0.596436,-0.396179,-0.575073,0.395813
1481268183020142,-0.597168,-0.39502,-0.576294,0.394104
1481268183036110,-0.597473,-0.394653,-0.576904,0.393066
1481268183059068,-0.598145,-0.393921,-0.577454,0.392029
1481268183080079,-0.599243,-0.392456,-0.578247,0.390564
1481268183096617,-0.600098,-0.391479,-0.578979,0.389221
1481268183118619,-0.601501,-0.389099,-0.580505,0.387085
1481268183139691,-0.603638,-0.384399,-0.583557,0.38385
1481268183155697,-0.605774,-0.380432,-0.586243,0.380371
1481268183185821,-0.607178,-0.377625,-0.588379,0.377625
1481268183200238,-0.607483,-0.376953,-0.589233,0.376526
1481268183215241,-0.608826,-0.37323,-0.59137,0.374634
1481268183239245,-0.609131,-0.370789,-0.592957,0.374084
1481268183260246,-0.609253,-0.369995,-0.593506,0.37384
1481268183275796,-0.609802,-0.368225,-0.594299,0.373352
1481268183298310,-0.610229,-0.366272,-0.595947,0.37207
1481268183322309,-0.611084,-0.364624,-0.596863,0.370789
1481268183337309,-0.611206,-0.364258,-0.596985,0.370667
1481268183358310,-0.611389,-0.362793,-0.598206,0.369812
1481268183380821,-0.611877,-0.361389,-0.599609,0.368286
1481268183397334,-0.613159,-0.358887,-0.601135,0.365967
1481268183418331,-0.614441,-0.35614,-0.603394,0.362732
1481268183440336,-0.616089,-0.353577,-0.605347,0.359131
1481268183456334,-0.617859,-0.350037,-0.607666,0.355713
1481268183478350,-0.619446,-0.34613,-0.609863,0.353027
1481268183500100,-0.62085,-0.343079,-0.611755,0.35022
1481268183524025,-0.623108,-0.338806,-0.613953,0.346558
1481268183546056,-0.624634,-0.337341,-0.61438,0.344421
1481268183562027,-0.626404,-0.333984,-0.615967,0.341736
1481268183583147,-0.627747,-0.330688,-0.617798,0.338989
1481268183598503,-0.629211,-0.328613,-0.618591,0.336914
1481268183620462,-0.630493,-0.326965,-0.619141,0.335205
1481268183643495,-0.632263,-0.324097,-0.620422,0.332214
1481268183658543,-0.63385,-0.321533,-0.621643,0.329407
1481268183681019,-0.635315,-0.319275,-0.622498,0.327148
1481268183710993,-0.636414,-0.316711,-0.623901,0.324768
1481268183717989,-0.637756,-0.313293,-0.626038,0.321411
1481268183741039,-0.638794,-0.308411,-0.629761,0.316711
1481268183763009,-0.640869,-0.303894,-0.632202,0.312073
1481268183778503,-0.642212,-0.297058,-0.636414,0.307251
1481268183800624,-0.644348,-0.291321,-0.639343,0.302063
1481268183823574,-0.645874,-0.285706,-0.642639,0.297119
1481268183837613,-0.647827,-0.283203,-0.64325,0.293884
1481268183860547,-0.64917,-0.27832,-0.646118,0.289307
1481268183883071,-0.650146,-0.275146,-0.647766,0.286621
1481268183898010,-0.651062,-0.27179,-0.649292,0.284058
1481268183920996,-0.652649,-0.268555,-0.650513,0.280823
1481268183942938,-0.654724,-0.263977,-0.652161,0.276428
1481268183958035,-0.656616,-0.259277,-0.654053,0.271912
1481268183981009,-0.658508,-0.25415,-0.656006,0.267395
1481268184003539,-0.660522,-0.248657,-0.658203,0.262207
1481268184017484,-0.664246,-0.242188,-0.659546,0.255249
1481268184056580,-0.666565,-0.235779,-0.661987,0.248962
1481268184071500,-0.669312,-0.229187,-0.664185,0.241699
1481268184078560,-0.672058,-0.221863,-0.666565,0.234436
1481268184107713,-0.675842,-0.214661,-0.667603,0.22699
1481268184122688,-0.678955,-0.207947,-0.669067,0.219604
1481268184137687,-0.681702,-0.199707,-0.671143,0.21228
1481268184160610,-0.685181,-0.192017,-0.67218,0.204651
1481268184183131,-0.687134,-0.185669,-0.674072,0.197693
1481268184197991,-0.68927,-0.180359,-0.674805,0.192566
1481268184221054,-0.690247,-0.172913,-0.677551,0.18634
1481268184242993,-0.691467,-0.167053,-0.679138,0.181091
1481268184259990,-0.692932,-0.161804,-0.680237,0.176208
1481268184281034,-0.693848,-0.157043,-0.68158,0.171631
1481268184303012,-0.695007,-0.1521,-0.682678,0.166992
1481268184319011,-0.696289,-0.147888,-0.68335,0.162537
1481268184341053,-0.697083,-0.14386,-0.684265,0.158813
1481268184363011,-0.697937,-0.140076,-0.685059,0.154907
1481268184382025,-0.698547,-0.136963,-0.685791,0.151794
1481268184401048,-0.699585,-0.13385,-0.686035,0.148682
1481268184423032,-0.700867,-0.129395,-0.686584,0.143921
1481268184439099,-0.702759,-0.125671,-0.686218,0.139648
1481268184468035,-0.704041,-0.122253,-0.686279,0.136108
1481268184490627,-0.7052,-0.119019,-0.68634,0.132446
1481268184499691,-0.706604,-0.113708,-0.68689,0.126831
1481268184520708,-0.707336,-0.107544,-0.688049,0.121521
1481268184544690,-0.707947,-0.102173,-0.689087,0.116638
1481268184566694,-0.708496,-0.0980835,-0.689819,0.112549
1481268184580818,-0.709473,-0.0949097,-0.689819,0.109131
1481268184602945,-0.710327,-0.0903931,-0.690186,0.104736
1481268184627852,-0.710815,-0.0855103,-0.69104,0.0999756
1481268184640908,-0.711365,-0.0819092,-0.691345,0.0966797
1481268184662932,-0.712097,-0.0792847,-0.691223,0.0942383
1481268184679867,-0.712646,-0.0762329,-0.691528,0.0905151
1481268184701024,-0.71344,-0.0726929,-0.691589,0.0866699
1481268184723101,-0.713989,-0.0693359,-0.691711,0.0835571
1481268184739085,-0.714294,-0.0655518,-0.6922,0.0799561
1481268184761062,-0.7146,-0.0617065,-0.692627,0.076416
1481268184783136,-0.714722,-0.0583496,-0.693176,0.072937
1481268184799307,-0.714844,-0.0548096,-0.693726,0.069397
1481268184828301,-0.714661,-0.050293,-0.694641,0.0655518
1481268184843303,-0.715027,-0.046875,-0.694824,0.0623169
1481268184860303,-0.715027,-0.0435181,-0.695313,0.0584717
1481268184880820,-0.715088,-0.0402222,-0.69574,0.0551147
1481268184903439,-0.714844,-0.0363159,-0.696533,0.0512085
1481268184919383,-0.7146,-0.0324707,-0.697205,0.0477905
1481268184940454,-0.714661,-0.0290527,-0.697449,0.0447388
1481268184963373,-0.714783,-0.0257568,-0.697754,0.0415649
1481268184979920,-0.715088,-0.0232544,-0.697632,0.0391846
1481268185000449,-0.715271,-0.0203857,-0.697632,0.0360107
1481268185023502,-0.715698,-0.0178223,-0.697449,0.0331421
1481268185039438,-0.715393,-0.0150146,-0.697998,0.0303955
1481268185060442,-0.714844,-0.0122681,-0.698669,0.0286255
1481268185083485,-0.714539,-0.00964355,-0.699097,0.0275879
1481268185098563,-0.7146,-0.00738525,-0.699097,0.0263062
1481268185120510,-0.715149,-0.00598145,-0.698547,0.0249634
1481268185143554,-0.716248,-0.00402832,-0.69751,0.022583
1481268185158527,-0.71759,-0.00286865,-0.696228,0.0206909
1481268185182093,-0.718933,-0.00213623,-0.694885,0.019104
1481268185203105,-0.720154,-0.00134277,-0.693665,0.0172119
1481268185219102,-0.72113,-0.000488281,-0.692749,0.0150757
1481268185242102,-0.721924,0.000366211,-0.691895,0.0131226
1481268185263108,-0.723145,0.0010376,-0.690613,0.0112915
1481268185279131,-0.723938,0.00299072,-0.689819,0.00830078
1481268185302121,-0.724243,0.00543213,-0.689575,0.00494385
1481268185323123,-0.724609,0.00714111,-0.689209,0.00244141
1481268185339128,-0.725281,0.00909424,-0.688416,0.000305176
1481268185368129,-0.725525,0.0111084,-0.688171,-0.00201416
1481268185383137,-0.72522,0.0140381,-0.688416,-0.00457764
1481268185399156,-0.725037,0.015625,-0.688599,-0.00610352
1481268185422157,-0.72522,0.0164795,-0.688354,-0.00646973
1481268185443153,-0.725342,0.0177002,-0.688171,-0.00732422
1481268185467155,-0.725647,0.019165,-0.687805,-0.00842285
1481268185482166,-0.725708,0.0209961,-0.687622,-0.0103149
1481268185503234,-0.72583,0.022522,-0.687439,-0.0120239
1481268185519176,-0.726135,0.0241699,-0.687073,-0.0142212
1481268185542184,-0.726624,0.0266724,-0.68634,-0.0167236
1481268185563178,-0.72644,0.0308228,-0.686279,-0.0206909
1481268185585755,-0.726624,0.0340576,-0.685913,-0.0232544
1481268185602206,-0.726501,0.0384521,-0.685608,-0.0267944
1481268185623285,-0.72644,0.043396,-0.685242,-0.0307007
1481268185647205,-0.725891,0.0476685,-0.685303,-0.0346069
1481268185662268,-0.725647,0.0511475,-0.685181,-0.0377808
1481268185683222,-0.725342,0.0556641,-0.684937,-0.041687
1481268185706113,-0.724548,0.0595703,-0.685242,-0.0447998
1481268185723007,-0.724243,0.0614624,-0.685303,-0.0458984
1481268185743008,-0.72406,0.0636597,-0.685242,-0.0473022
1481268185766048,-0.723389,0.0669556,-0.685425,-0.0501709
1481268185782024,-0.723022,0.069519,-0.685425,-0.0522461
1481268185803532,-0.722656,0.0713501,-0.685486,-0.0536499
1481268185825535,-0.722717,0.0727539,-0.685181,-0.0546265
1481268185841585,-0.722168,0.0751953,-0.685303,-0.0565796
1481268185863600,-0.721741,0.0768433,-0.685486,-0.0581055
1481268185879062,-0.721497,0.0778198,-0.685547,-0.0592041
1481268185901632,-0.721497,0.0785522,-0.685425,-0.0598755
1481268185923608,-0.721375,0.0794678,-0.685364,-0.0605469
1481268185945650,-0.721069,0.0806885,-0.685486,-0.0615234
1481268185961637,-0.720947,0.0817871,-0.685364,-0.062561
1481268185998687,-0.721008,0.0826416,-0.68512,-0.0634155
1481268186012688,-0.720886,0.0834961,-0.685059,-0.064209
1481268186021690,-0.72052,0.0849609,-0.68512,-0.0657349
1481268186042667,-0.719849,0.0872192,-0.685303,-0.0681763
1481268186065665,-0.719971,0.088501,-0.684875,-0.069397
1481268186081686,-0.720215,0.0897827,-0.684387,-0.0706787
1481268186102702,-0.719971,0.0922241,-0.684021,-0.0730591
1481268186125705,-0.718811,0.0963745,-0.684204,-0.0772095
1481268186141767,-0.718628,0.0985107,-0.683899,-0.0791016
1481268186164702,-0.718323,0.100952,-0.683594,-0.0809937
1481268186185807,-0.717468,0.104492,-0.683594,-0.0838013
1481268186201797,-0.717346,0.107422,-0.683044,-0.0863037
1481268186224798,-0.717407,0.109924,-0.682251,-0.088623
1481268186245800,-0.71698,0.112732,-0.681885,-0.0914307
1481268186267797,-0.716248,0.115845,-0.681702,-0.0944824
1481268186290811,-0.715576,0.117981,-0.681763,-0.0966797
1481268186305822,-0.715393,0.119751,-0.681335,-0.0983887
1481268186321819,-0.715576,0.121704,-0.680542,-0.100342
1481268186344824,-0.715332,0.124512,-0.67981,-0.103699
1481268186365821,-0.71582,0.126465,-0.678589,-0.10614
1481268186388833,-0.716187,0.127747,-0.677795,-0.107178
1481268186404848,-0.716248,0.128906,-0.677368,-0.108032
1481268186425850,-0.715759,0.130554,-0.677307,-0.109741
1481268186440845,-0.714966,0.132324,-0.67749,-0.111572
1481268186471846,-0.7146,0.132874,-0.677612,-0.112244
1481268186485863,-0.714172,0.133118,-0.677917,-0.11261
1481268186509871,-0.713562,0.133484,-0.678528,-0.112976
1481268186530938,-0.713013,0.133789,-0.678955,-0.113037
1481268186546876,-0.712463,0.134155,-0.679443,-0.113159
1481268186569876,-0.711975,0.134338,-0.679932,-0.113159
1481268186584940,-0.711365,0.134399,-0.680542,-0.113159
1481268186605939,-0.710754,0.13446,-0.681152,-0.113159
1481268186620969,-0.710144,0.134521,-0.681824,-0.113159
1481268186644971,-0.709534,0.134583,-0.682434,-0.112976
1481268186665912,-0.709351,0.134521,-0.682678,-0.112793
1481268186681983,-0.709351,0.134521,-0.682678,-0.112793
1481268186704799,-0.709534,0.134155,-0.682617,-0.112915
1481268186725803,-0.709534,0.133789,-0.682678,-0.112976
1481268186741773,-0.709534,0.133789,-0.682678,-0.112976
1481268186770817,-0.709351,0.133179,-0.682861,-0.113281
1481268186785940,-0.708252,0.132751,-0.684021,-0.113953
1481268186801654,-0.707458,0.132263,-0.684753,-0.114807
1481268186824655,-0.706848,0.132202,-0.685303,-0.115662
1481268186845680,-0.704407,0.134399,-0.687134,-0.117188
