timestamp,emg1,emg2,emg3,emg4,emg5,emg6,emg7,emg8
1481269123390840,0,-2,-1,-3,-1,-1,0,0
1481269123390840,0,3,-2,-2,-1,-2,2,-2
1481269123395920,-3,-3,0,5,1,-1,-1,-1
1481269123395920,1,-4,-2,-7,-2,-2,2,-1
1481269123396869,-2,4,-1,-1,0,-2,1,-1
1481269123396869,-2,-2,-2,-1,-1,2,-2,1
1481269123398846,0,-3,2,0,0,1,1,1
1481269123398846,-3,0,-1,0,0,1,-1,-2
1481269123408842,-3,-1,0,0,1,-1,-1,-2
1481269123408842,3,0,2,1,0,-1,-1,0
1481269123420946,-2,-4,-5,-3,0,-2,-3,-1
1481269123420946,2,0,3,2,-2,-3,-3,-4
1481269123424443,-1,-6,-16,-3,-3,-1,-1,-4
1481269123424443,0,-2,-2,0,-1,1,-1,-1
1481269123438686,0,0,-2,-4,-2,0,-2,-1
1481269123438686,-1,-1,-1,-2,0,-1,0,0
1481269123447686,0,-1,4,0,-1,0,0,2
1481269123447686,-2,-3,1,0,-3,-2,-2,-1
1481269123455720,0,-1,-2,-1,0,-2,0,0
1481269123455720,-1,-2,2,3,0,1,0,-1
1481269123468688,2,1,1,-6,-2,-1,1,0
1481269123468688,-1,-5,-7,-3,-1,-2,2,-1
1481269123479753,3,3,0,-4,-2,-1,1,-1
1481269123479753,-1,-3,-3,-2,-1,1,0,-2
1481269123516694,2,3,-5,-1,1,-2,-1,2
1481269123516694,-3,-1,1,1,0,0,-2,-3
1481269123517755,-1,-1,0,-2,-1,-1,-2,0
1481269123517755,0,3,-2,-3,-1,2,-1,0
1481269123517755,-1,2,-1,3,-1,0,-1,1
1481269123517755,0,-3,-2,0,-1,-1,1,0
1481269123521701,0,0,1,0,-3,0,-1,-2
1481269123521701,0,-2,1,0,-2,-2,-1,-1
1481269123529202,2,-1,1,0,-3,-2,-1,-1
1481269123529202,-2,-1,2,1,0,-2,-1,1
1481269123537798,-1,1,0,0,-1,-1,-2,1
1481269123537798,-2,-5,1,0,-1,-2,0,0
1481269123543807,-1,-1,-1,0,0,1,1,-1
1481269123543807,-6,1,2,3,2,0,-3,-6
1481269123558807,-1,-2,-2,0,-1,-1,0,-3
1481269123558807,0,-1,0,-2,-2,0,-2,-4
1481269123566734,-4,-3,0,-2,-1,-2,-1,-1
1481269123566734,3,1,-3,-2,-2,-1,-1,1
1481269123581756,-2,-2,-1,-1,2,0,-1,-1
1481269123581756,-1,0,-2,0,0,-2,-1,-1
1481269123588806,0,-3,-1,-2,0,0,0,-3
1481269123588806,2,-1,-1,0,0,0,-1,-1
1481269123597827,0,-1,1,2,-1,0,-1,0
1481269123597827,-1,-3,-2,1,0,-1,-2,0
1481269123603810,-1,-1,0,-1,0,-2,-2,0
1481269123603810,1,-1,-1,-1,-2,-2,1,-1
1481269123618735,1,-2,-1,-2,0,-1,0,-1
1481269123618735,-2,2,1,-1,1,0,-1,-1
1481269123626741,1,-1,-1,0,-1,-2,-2,-2
1481269123626741,-1,-2,0,-1,-1,1,-3,-2
1481269123641275,1,2,-1,-3,-1,0,-1,0
1481269123641275,-1,-4,-1,0,-1,1,1,0
1481269123649382,0,-3,0,-1,-1,0,0,0
1481269123649382,-2,-1,-1,-1,2,0,-1,-2
1481269123666250,0,-4,-2,0,0,-2,0,-1
1481269123666250,-1,-3,-2,-3,-1,-1,0,-1
1481269123667285,0,-2,0,0,-1,-1,-2,-1
1481269123667285,-1,1,1,-3,-1,-1,0,2
1481269123679315,-4,-4,1,0,0,0,0,0
1481269123679315,-2,-1,1,4,0,-2,1,-1
1481269123686251,-1,-4,0,0,-1,-1,-2,-2
1481269123686251,-5,-3,0,2,0,0,-1,-1
1481269123701255,0,-1,-2,-3,-2,-1,-1,-1
1481269123701255,-1,-2,0,0,-2,-3,-1,0
1481269123709317,-3,-5,-1,-1,1,0,-2,-4
1481269123709317,4,-1,0,-4,-1,-3,0,2
1481269123718257,-4,1,0,3,0,1,-1,-3
1481269123718257,-4,-3,1,2,0,1,-3,-2
1481269123724345,1,3,0,-1,-1,-3,0,0
1481269123724345,-3,-3,-1,-1,0,-1,0,-1
1481269123739338,0,0,2,3,-1,-2,-2,-1
1481269123739338,2,-1,-1,-2,-2,0,0,2
1481269123746275,-3,-1,2,2,-1,1,0,-2
1481269123746275,-1,0,-2,-1,-3,-1,-3,-1
1481269123761272,-2,-3,0,-2,-1,-1,0,-1
1481269123761272,-1,-2,-3,-2,-1,0,-2,-2
1481269123769335,0,-3,-1,-2,-1,-1,-1,0
1481269123769335,3,-1,-2,0,-2,0,0,1
1481269123786273,-1,0,0,-1,-1,-1,0,-1
1481269123786273,1,0,-2,-2,0,-1,-1,-2
1481269123787308,0,-2,-2,0,0,-1,-2,0
1481269123787308,1,0,-3,-3,-1,0,-2,1
1481269123799340,4,-1,0,-3,-3,-2,-1,0
1481269123799340,-2,1,2,-1,-1,-1,0,2
1481269123806277,-1,-1,0,-1,-3,0,2,0
1481269123806277,-1,-2,-2,-2,-1,0,1,-3
1481269123821856,-2,0,-1,2,0,1,0,-1
1481269123821856,-1,-1,-1,2,0,0,-1,-2
1481269123829366,-1,-1,0,-1,1,1,0,-1
1481269123829366,-1,1,-1,-1,0,-1,0,-2
1481269123837887,0,-1,-2,-3,-1,-2,0,0
1481269123837887,0,0,0,-4,-1,-2,-2,0
1481269123843896,-4,-1,-2,-1,-1,0,-2,2
1481269123843896,0,1,-1,1,-2,-1,-1,0
1481269123858902,0,-3,-1,0,-1,0,-2,-4
1481269123858902,1,-1,-2,0,-2,1,2,-2
1481269123866954,-2,-2,1,3,0,1,1,-5
1481269123866954,-2,-1,0,0,0,0,1,-2
1481269123881957,0,0,-2,-4,0,-2,0,2
1481269123881957,0,0,-1,-1,1,1,-2,-2
1481269123888913,0,0,0,-2,-1,-1,1,0
1481269123888913,1,0,-2,-2,-2,-1,0,-1
1481269123897859,-1,-2,-2,0,-1,0,-3,0
1481269123897859,0,1,-4,0,-2,-4,-2,0
1481269123903827,-1,1,-1,-4,-2,-2,-2,0
1481269123903827,-1,-1,1,-1,1,0,-2,0
1481269123920422,1,-1,-1,-3,-1,0,0,0
1481269123920422,-1,-2,1,-1,-1,0,0,-1
1481269123926925,3,0,-4,-3,-3,-1,-1,-1
1481269123926925,-2,-3,-2,-4,-2,-2,0,0
1481269123941449,1,0,-3,-1,-3,-2,0,-1
1481269123941449,0,-1,-2,-1,0,-1,0,2
1481269123949541,0,0,-3,-2,-1,-1,-1,0
1481269123949541,0,-1,0,1,0,-1,0,-1
1481269123958518,-3,-2,0,0,2,0,-4,-4
1481269123958518,-1,-2,-2,-1,-1,0,0,0
1481269123971511,-2,0,-1,1,0,-2,0,0
1481269123971511,2,-1,-2,-2,0,-2,1,0
1481269123980500,-1,-1,0,-2,0,-1,-1,0
1481269123980500,-3,-2,1,1,-2,0,-1,-4
1481269123986569,-4,-4,1,1,2,-1,-1,-2
1481269123986569,-1,-3,0,1,-2,1,1,0
1481269124001448,0,1,0,0,-1,-2,2,0
1481269124001448,-1,-3,-3,-2,0,2,0,0
1481269124008514,-1,-2,0,0,0,0,0,-1
1481269124008514,-1,-3,0,0,1,-1,-2,-2
1481269124017450,-2,-1,0,2,0,-2,-1,-3
1481269124017450,1,-1,1,0,0,-3,-1,-3
1481269124031962,1,0,0,-1,-1,-2,-3,-1
1481269124031962,0,-1,1,1,-1,0,0,0
1481269124040062,-2,-3,0,-3,0,0,-1,1
1481269124040062,-4,-4,3,4,1,0,-2,-1
1481269124046093,-1,-1,0,0,0,1,1,1
1481269124046093,-1,-1,-3,0,-3,-1,-1,0
1481269124063026,-2,-2,-1,-1,0,1,1,-3
1481269124063026,1,0,-1,-1,1,-1,0,-2
1481269124069031,0,-1,-5,-5,-2,1,1,0
1481269124069031,-2,0,1,1,0,2,-3,-3
1481269124078027,0,-1,-1,-1,-1,-1,0,3
1481269124078027,0,-1,-1,0,1,-1,-1,-2
1481269124091137,1,-1,0,-1,-1,-2,0,-2
1481269124091137,0,1,-1,-2,-2,-1,-1,-2
1481269124100094,-1,-1,-2,-1,-2,-1,-2,-1
1481269124100094,0,-1,0,-3,-2,0,0,-1
1481269124106033,0,0,0,0,-1,-1,0,-3
1481269124106033,0,-1,-1,-2,0,0,-1,-1
1481269124121545,-4,-2,1,2,0,-1,-1,-1
1481269124121545,-1,-1,-1,-1,-2,0,2,3
1481269124129046,-2,-2,-1,0,-2,-2,-2,1
1481269124129046,-1,-2,-2,-1,0,-2,-1,-1
1481269124138083,-2,0,-1,-3,0,0,0,0
1481269124138083,-1,-2,-1,-1,-1,-2,-2,-3
1481269124151087,-1,-1,0,-3,-1,0,0,-1
1481269124151087,0,-1,-1,-1,-2,-2,-1,0
1481269124160156,-1,-1,-1,-1,1,-1,-2,0
1481269124160156,-1,-1,-1,0,-1,1,0,0
1481269124166155,0,-1,-2,-1,-1,-1,-1,0
1481269124166155,-4,-4,0,-1,1,0,0,-1
1481269124181175,0,0,-1,0,0,-2,-1,-1
1481269124181175,-2,2,-3,-3,-1,-1,-1,-2
1481269124189088,0,0,-2,-1,1,0,-2,-2
1481269124189088,0,-2,0,-1,1,-1,1,1
1481269124198090,-1,0,2,3,0,0,1,-1
1481269124198090,0,-3,-2,-2,-1,1,0,0
1481269124211090,-2,-1,-2,-2,-3,-2,-1,-1
1481269124211090,3,0,-4,1,0,-3,-3,0
1481269124220647,-2,0,-1,-2,0,-1,-1,-3
1481269124220647,1,-1,-1,-1,-2,0,-1,-1
1481269124226650,2,1,-1,-2,-2,-1,-1,-1
1481269124226650,-2,-2,0,-1,1,0,-1,3
1481269124241589,0,-3,-2,-2,1,0,0,1
1481269124241589,-2,0,0,0,1,-2,-2,0
1481269124248589,0,-2,-1,-1,-1,1,-2,-1
1481269124248589,-2,2,0,0,-2,-1,0,-2
1481269124257655,-2,-1,1,-3,-1,-1,1,0
1481269124257655,-2,-2,3,2,0,-1,0,-1
1481269124271586,-2,-2,-1,1,-1,0,1,-1
1481269124271586,-1,-1,-1,0,-1,0,-2,-1
1481269124280589,-1,-2,0,2,-2,0,-2,0
1481269124280589,-1,-3,-2,0,0,0,-1,0
1481269124286587,0,-2,0,-2,-1,0,-1,1
1481269124286587,1,0,0,-1,-1,0,0,-2
1481269124301588,2,2,-3,-3,-3,-1,0,0
1481269124301588,-3,-2,1,0,-1,-2,-2,0
1481269124308656,-5,-1,2,6,2,-2,-1,-3
1481269124308656,0,-1,-2,-1,-1,-1,0,0
1481269124317592,1,-2,-2,-2,-3,1,-2,-1
1481269124317592,-1,-4,-1,-2,0,0,1,-3
1481269124340317,0,-2,-1,-2,-2,-2,-1,-1
1481269124340317,0,0,0,-2,-1,-3,0,-2
1481269124341312,-2,0,0,-2,-1,0,-2,0
1481269124341312,-1,2,-3,-2,-2,-2,-1,2
1481269124346379,-1,-1,-4,-2,-3,-2,-1,1
1481269124346379,-2,-1,1,-1,-1,-1,1,0
1481269124361379,3,0,-2,-3,-1,-1,0,-1
1481269124361379,-2,-3,0,-2,1,0,-2,-4
1481269124369375,1,-1,-1,-1,-1,0,-1,1
1481269124369375,0,-3,-2,2,1,-1,0,-2
1481269124378347,-2,-1,-1,0,0,-2,-1,-2
1481269124378347,1,-1,-1,-2,-1,-1,-1,2
1481269124391313,1,-3,0,0,-2,1,0,1
1481269124391313,-2,-3,0,-2,-4,0,-3,-2
1481269124400314,0,0,-1,-1,-2,-2,1,-1
1481269124400314,-1,0,0,0,1,-1,-1,-2
1481269124406315,0,-1,0,-2,-2,-2,1,-1
1481269124406315,1,-1,0,0,0,-1,0,-2
1481269124421875,-2,-2,0,1,0,0,-1,1
1481269124421875,1,0,1,-2,-2,0,0,-1
1481269124429370,0,-1,2,-2,2,1,-3,-1
1481269124429370,-2,0,0,-1,0,-1,-1,0
1481269124437831,-2,-2,1,2,-1,-1,0,-2
1481269124437831,-1,-2,-1,0,0,-1,-2,0
1481269124451895,-2,-1,-1,0,0,1,-2,-1
1481269124451895,0,-1,-2,-3,0,0,-1,-1
1481269124460898,-1,-3,0,-3,0,-1,-1,0
1481269124460898,0,-1,-1,0,-1,0,2,-1
1481269124466894,0,-2,0,0,-1,-3,1,-3
1481269124466894,0,0,-2,-2,0,-1,-2,-1
1481269124480918,1,0,-2,1,0,-1,0,1
1481269124480918,-2,-3,-1,-1,-1,-1,1,-1
1481269124488926,-1,-2,-1,0,-1,-1,-2,0
1481269124488926,-2,-2,-3,-2,-1,0,-2,1
1481269124503835,2,-1,-1,-2,-1,1,-1,-1
1481269124503835,0,-1,0,1,0,-1,-1,0
1481269124511899,-2,-1,0,1,-1,0,0,-1
1481269124511899,-2,-4,0,-2,0,-1,0,2
1481269124527351,-1,-1,-1,-1,1,1,-1,-1
1481269124527351,2,-1,-1,-4,-2,-1,-1,0
1481269124527850,0,-1,-2,-2,1,-2,-1,-1
1481269124527850,-2,0,-3,1,1,0,-2,-2
1481269124541927,-2,-2,-2,0,-1,-3,-2,-2
1481269124541927,0,-1,-1,0,-2,-2,-2,0
1481269124549036,0,-1,-3,-3,-1,-1,1,4
1481269124549036,-1,-1,-1,0,-1,0,1,0
1481269124563946,-1,1,-1,-1,-2,-1,0,-1
1481269124563946,-2,0,-2,-1,-1,-1,0,-2
1481269124579943,-1,-2,-1,-1,-1,-2,-3,-1
1481269124579943,1,-2,-1,0,-1,0,0,1
1481269124586944,0,-3,1,0,-1,-1,0,-1
1481269124586944,-2,-3,-1,-2,-2,-1,1,0
1481269124587946,-2,-1,0,-1,0,0,1,-1
1481269124587946,-2,-1,1,-3,-2,-2,-1,0
1481269124600947,1,2,0,0,-3,-1,-1,0
1481269124600947,-5,-1,1,0,0,0,-2,-2
1481269124616944,0,0,0,-1,-1,0,-1,-1
1481269124616944,0,-3,-4,-3,0,1,-3,-2
1481269124624482,2,-4,-1,1,0,-2,-3,-1
1481269124624482,1,1,-1,0,1,0,0,0
1481269124631454,-2,0,3,-2,-1,0,-2,-1
1481269124631454,-4,-2,1,0,-2,-1,-2,-5
1481269124646958,-3,1,0,-3,-1,-2,0,-2
1481269124646958,0,-3,-1,-1,2,-1,1,-1
1481269124647960,-2,-2,-2,-1,-2,-1,1,0
1481269124647960,0,-1,2,0,-3,0,0,-3
1481269124661051,0,-2,-1,-1,-2,1,0,-2
1481269124661051,1,0,-2,-3,-1,-1,-1,1
1481269124668963,0,0,-2,1,0,0,2,-2
1481269124668963,1,-2,1,2,0,-3,1,0
1481269124683960,-3,-2,1,0,-1,1,-1,-3
1481269124683960,-1,-1,-2,-3,-2,-1,0,-1
1481269124690960,2,-1,0,0,-2,-2,-2,2
1481269124690960,-3,-2,1,1,-2,1,0,-2
1481269124706961,-1,-1,0,2,1,0,-1,0
1481269124706961,1,0,-2,0,-2,-1,-1,1
1481269124707961,-2,-1,-1,-1,-1,-2,-1,1
1481269124707961,2,0,0,-2,-2,0,1,0
1481269124721468,-1,-3,-1,-1,-1,-1,1,2
1481269124721468,-1,-2,0,2,0,-1,-2,-2
1481269124728968,1,1,-1,-2,0,-1,0,-2
1481269124728968,-2,-2,-2,-1,-1,-1,-1,1
1481269124743976,-3,0,2,1,1,-1,0,1
1481269124743976,-1,-2,-1,-1,0,0,-1,-1
1481269124751977,-2,-5,-1,1,1,1,1,1
1481269124751977,3,3,0,0,0,0,-2,-1
1481269124766989,-1,-1,0,-1,0,-2,-1,-2
1481269124766989,-1,1,-1,1,-2,-1,-1,-2
1481269124767979,-2,-2,-2,0,0,0,-2,0
1481269124767979,0,0,-2,-5,0,-1,0,1
1481269124780979,-1,-1,-2,-3,0,-2,-3,0
1481269124780979,-4,-1,1,-1,-1,0,-3,-2
1481269124789017,-3,-3,-1,-2,0,0,-1,-1
1481269124789017,3,1,0,-1,-2,-1,0,1
1481269124803981,-2,-2,-1,-2,-2,0,-1,0
1481269124803981,2,-2,1,0,-2,-2,-1,0
1481269124810981,0,-2,1,-2,-1,-4,-1,-3
1481269124810981,-4,-1,0,2,1,-1,-2,-2
1481269124827508,0,-2,-1,0,-1,1,2,1
1481269124827508,1,0,-3,-2,0,0,0,1
1481269124827990,2,1,-2,0,-1,1,2,-1
1481269124827990,0,-1,-1,0,-1,-3,-1,-1
1481269124841490,-1,-2,-1,-1,-2,1,-1,-1
1481269124841490,1,0,-1,-1,-1,-2,-4,0
1481269124848991,-2,0,-1,-1,-2,-1,-3,-1
1481269124848991,-1,-3,-1,-3,-1,-1,-3,1
1481269124863993,1,-1,-4,-1,0,-1,0,0
1481269124863993,0,-1,0,0,-1,0,3,-1
1481269124871494,1,-2,1,0,-1,-2,2,-1
1481269124871494,-1,-1,0,0,0,-1,0,1
1481269124887561,2,0,-1,-2,-2,-2,0,2
1481269124887561,1,-1,-1,-2,0,-1,-1,-3
1481269124887997,-2,-2,-3,0,-1,0,-3,-2
1481269124887997,0,-2,-3,-2,-2,-1,-1,-2
1481269124901498,0,-1,-3,-2,-1,1,1,1
1481269124901498,0,-1,0,0,-2,-2,-3,1
1481269124908999,-1,-1,0,-4,-2,0,-2,2
1481269124908999,-5,-3,5,5,2,1,0,-3
1481269124924001,-1,0,1,0,-1,-1,-1,-3
1481269124924001,-1,-1,-1,-1,0,1,0,-1
1481269124931502,2,0,-1,-2,-2,-2,-3,-2
1481269124931502,-1,1,-4,-4,-2,0,-1,0
1481269124946504,-2,-2,-1,-1,-2,-2,0,-3
1481269124946504,0,-3,-1,0,-1,0,1,0
1481269124955006,-3,0,1,2,0,0,0,-3
1481269124955006,0,-2,-1,-1,-1,-2,-1,-1
1481269124961506,-2,0,0,0,-1,-1,-2,1
1481269124961506,1,0,-2,-3,-2,-1,-2,1
1481269124969507,1,0,-2,-5,-2,0,1,1
1481269124969507,0,-2,-1,-1,-1,0,0,0
1481269124984008,-2,-1,1,0,1,-1,-2,-4
1481269124984008,0,0,-2,-3,-1,-2,1,-1
1481269124991510,0,-2,-2,-1,0,-1,-2,0
1481269124991510,-2,-1,0,0,-2,-1,-1,-2
1481269125006511,-2,-2,-1,-1,-2,0,-1,1
1481269125006511,3,1,-5,-3,-1,0,1,2
1481269125015012,-3,-2,0,1,-1,-1,-1,-4
1481269125015012,-1,0,-2,-3,0,-1,1,-1
1481269125021514,0,-1,-1,-1,1,1,0,-4
1481269125021514,0,-1,-3,-2,1,0,0,2
1481269125029014,0,0,-1,2,1,-1,-1,-2
1481269125029014,0,0,-1,-2,-2,0,-2,0
1481269125052017,0,-3,0,1,-1,-1,-2,0
1481269125052017,-4,-3,2,1,0,0,-4,-2
1481269125053017,0,-2,-2,-3,0,0,0,0
1481269125053017,-2,-1,-3,-3,1,-1,0,-1
1481269125066553,0,-1,-2,-1,-1,0,0,-1
1481269125066553,-3,-1,1,0,-2,-1,-2,-1
1481269125075086,-1,-4,-1,0,0,-1,0,-2
1481269125075086,0,-2,0,1,-3,0,0,-1
1481269125090058,2,-1,-1,-3,-1,0,1,1
1481269125090058,-2,-1,-1,-1,-2,-1,2,-1
1481269125090522,-1,0,0,-3,-2,0,-1,2
1481269125090522,1,-1,-3,-2,0,0,1,1
1481269125104023,-2,-1,-1,-1,-1,-2,-1,1
1481269125104023,-2,0,2,2,1,-1,0,0
1481269125111524,-2,0,0,0,-1,-2,-1,-2
1481269125111524,-1,0,-1,0,0,-1,-2,-3
1481269125126527,-1,-2,-2,-1,-2,-2,-2,-2
1481269125126527,0,-2,0,-2,-1,-1,-1,-2
1481269125135091,0,-4,-3,-2,-1,-2,1,-1
1481269125135091,1,0,0,0,-1,-2,-1,1
1481269125150094,-1,-3,-1,2,0,0,1,-1
1481269125150094,-4,-2,-3,1,-1,-1,-1,-1
1481269125150530,0,1,-3,-2,-4,-1,0,0
1481269125150530,-1,-1,1,-1,-1,-2,-1,-1
1481269125172032,-3,0,1,0,0,-1,-3,-3
1481269125172032,-1,-1,-1,-1,1,-2,-1,-2
1481269125173032,-1,-2,0,0,1,0,-3,-1
1481269125173032,-3,-4,-1,0,-1,-1,2,1
1481269125186534,2,-2,0,-1,-2,-2,0,-1
1481269125186534,4,1,-2,-4,-3,-3,0,1
1481269125195099,-2,0,0,0,0,-1,-1,-2
1481269125195099,-1,-3,-1,-2,-3,0,0,-1
1481269125210101,-3,-1,-2,1,-1,0,-1,0
1481269125210101,-1,-1,-3,-1,-3,0,0,-1
1481269125210537,0,0,-1,1,0,-1,-1,0
1481269125210537,2,0,-3,-2,-1,0,-1,1
1481269125224039,0,-1,-2,-4,0,0,-1,-2
1481269125224039,-2,-2,3,0,-2,-2,-1,-3
1481269125231540,0,0,0,-1,0,-2,-1,1
1481269125231540,-3,-2,3,2,1,-3,-2,-2
1481269125246541,-1,-1,-1,0,0,-2,-4,-2
1481269125246541,-2,0,1,-1,0,-1,-2,0
1481269125255098,1,0,-2,-1,-1,-1,1,-1
1481269125255098,1,0,-2,0,-2,0,-1,1
1481269125270099,-1,-1,2,-2,0,-2,0,0
1481269125270099,1,-1,-1,-3,-2,-1,0,2
1481269125270545,-3,-1,1,2,2,1,-2,-2
1481269125270545,-2,-3,0,-2,0,1,-1,-2
1481269125284546,-1,0,-2,-1,0,-1,0,0
1481269125284546,-1,0,-4,-2,-2,-2,-2,-2
1481269125291547,2,0,-2,-3,-2,-2,-1,-2
1481269125291547,-1,1,1,-1,0,-1,-1,-2
1481269125306549,-1,-1,0,1,-1,-1,1,-2
1481269125306549,0,-1,1,1,1,-1,0,-2
1481269125315115,4,2,-4,-6,-3,-1,1,1
1481269125315115,-1,0,0,-1,-1,-3,0,-3
1481269125330116,0,-1,0,-2,-2,-1,-1,-3
1481269125330116,-1,-1,-3,-2,-1,0,-2,-1
1481269125330552,-1,0,3,1,-1,0,-1,0
1481269125330552,0,1,-3,0,0,0,1,0
1481269125344054,1,0,0,-2,-1,0,-1,0
1481269125344054,0,-1,-2,1,1,0,0,-1
1481269125351555,-3,-2,-2,1,-1,0,0,-4
1481269125351555,-1,0,-1,0,0,0,0,0
1481269125366557,-1,0,-1,0,-3,-1,-1,0
1481269125366557,0,0,0,-3,-2,-1,-1,0
1481269125375108,0,-2,1,1,-1,-1,2,-1
1481269125375108,0,0,-1,-1,-1,-1,-1,0
1481269125390100,2,-1,-2,-1,-1,-3,0,0
1481269125390100,-3,-5,1,2,1,0,0,0
1481269125390561,-7,-5,2,2,2,-1,-3,-4
1481269125390561,1,-1,1,-2,-1,-2,-1,0
1481269125412063,-2,0,-1,0,0,0,0,2
1481269125412063,-2,-1,-1,-2,-2,0,0,0
1481269125413063,1,-1,-3,-4,-1,-1,0,1
1481269125413063,2,-2,0,2,2,0,0,-1
1481269125426565,-2,1,-1,-1,-2,0,-1,-1
1481269125426565,2,0,-1,-1,-1,-1,-1,-2
1481269125435130,-3,-4,1,0,0,1,-2,-2
1481269125435130,-1,1,-3,-1,-2,-3,0,0
1481269125450120,-3,-3,-1,-1,0,0,2,2
1481269125450120,-3,-3,0,-1,1,-1,-1,0
1481269125450568,3,2,0,0,-1,-2,0,0
1481269125450568,-2,-3,-2,-2,-1,-2,-2,-2
1481269125464069,0,-1,0,-1,0,-1,-2,-2
1481269125464069,0,0,-2,-1,-4,-2,-2,-1
1481269125471570,2,0,-2,-2,-2,-3,-1,-2
1481269125471570,-1,-1,1,0,-1,0,-2,-1
1481269125486573,1,2,1,-3,0,0,1,0
1481269125486573,-1,-4,1,1,0,0,2,-3
1481269125495108,-1,-3,-3,-1,0,0,1,0
1481269125495108,0,-1,0,-2,-2,-1,-1,-1
1481269125510110,-1,-1,0,-3,0,-1,-3,-1
1481269125510110,-1,-1,-1,-1,1,0,-1,2
1481269125510575,-1,0,1,-1,-2,0,-1,2
1481269125510575,0,-1,-2,-1,1,-1,-1,2
1481269125532078,-1,-1,-1,0,0,-1,-2,-1
1481269125532078,-1,0,-2,0,0,-1,0,-1
1481269125533078,1,3,-2,-1,-1,-2,1,-2
1481269125533078,-3,-3,1,0,-1,1,-1,-3
1481269125546088,1,-2,-2,-1,-2,0,0,-1
1481269125546088,0,1,1,-2,-1,-2,-4,-2
1481269125554087,1,-3,0,-1,0,0,0,0
1481269125554087,1,-1,0,-3,0,-1,-1,-1
1481269125569087,-3,-2,2,4,1,-1,0,-3
1481269125569087,0,-3,-1,1,-2,-1,0,-1
1481269125570121,0,-2,-1,0,-2,0,0,0
1481269125570121,-1,0,-1,2,-1,0,-2,1
1481269125584089,-2,-1,0,1,-1,-2,-3,-1
1481269125584089,-1,1,-1,-2,-1,0,1,1
1481269125591090,-1,0,1,-1,-1,0,-1,1
1481269125591090,-3,-1,-2,2,0,0,-2,0
1481269125606090,1,1,-1,-3,-2,-1,1,-2
1481269125606090,-3,-1,-1,1,0,0,-1,-2
1481269125614090,-1,-3,-1,-2,0,-1,-1,-1
1481269125614090,-2,0,-3,0,-3,-1,1,-2
1481269125629598,-4,-3,0,0,-1,-1,-1,0
1481269125629598,1,1,2,-1,0,-1,0,0
1481269125630598,0,1,0,1,0,0,0,0
1481269125630598,0,0,1,1,-2,-2,-2,-1
1481269125644106,-1,-5,-1,-3,-2,-1,0,-3
1481269125644106,-3,-4,0,2,-1,-1,-2,0
1481269125651108,-5,-4,-1,1,1,1,-2,-5
1481269125651108,1,0,0,-2,0,-1,-2,-2
1481269125666107,2,1,-3,1,-2,-1,-2,-1
1481269125666107,2,1,-2,-3,-1,0,1,0
1481269125674108,0,-1,-1,-3,-2,-4,-3,1
1481269125674108,-2,0,-1,0,0,-1,-2,-1
1481269125690138,-1,0,-3,-1,0,0,-2,1
1481269125690138,1,-1,-2,-1,1,1,0,0
1481269125690138,-1,1,-1,-2,-1,-2,-2,0
1481269125690138,0,-1,0,-2,0,0,2,-1
1481269125704187,6,2,-4,-6,-3,0,0,5
1481269125704187,-3,0,3,4,0,-1,-2,-4
1481269125711110,-1,1,-2,0,0,-2,0,-1
1481269125711110,-2,-3,-1,-4,-1,0,-2,0
1481269125726616,-1,-3,0,0,-2,-2,0,-1
1481269125726616,0,-2,-2,-3,-3,-1,0,0
1481269125734118,-2,-2,-1,-1,-1,1,-1,-3
1481269125734118,0,2,0,0,-1,-2,-2,-2
1481269125750150,-5,-2,1,-2,0,0,0,-2
1481269125750150,-1,-3,0,-1,0,-1,0,-3
1481269125750150,-2,0,-2,0,-3,0,0,-3
1481269125750150,0,-1,-2,-2,-2,-1,0,1
1481269125764127,0,-1,-1,-2,-1,0,0,-3
1481269125764127,0,0,-1,1,-1,-2,-3,0
1481269125771128,0,0,0,-2,-1,0,1,1
1481269125771128,1,-1,-1,-1,1,-1,0,2
1481269125786128,-3,1,3,2,0,-2,-2,-1
1481269125786128,-2,-1,1,-2,1,-1,-2,0
1481269125794128,0,0,-1,0,-3,-1,-4,0
1481269125794128,-1,-1,-2,-1,-2,-2,-1,-1
1481269125809133,0,-2,-4,-2,0,0,-2,1
1481269125809133,3,1,-4,-3,-3,-1,-1,2
1481269125810136,0,-1,1,-2,-1,-1,-1,-1
1481269125810136,1,1,0,-1,-2,0,-1,-1
1481269125824225,-1,-2,1,0,0,0,0,-3
1481269125824225,-1,0,1,-1,-1,-1,-1,-2
1481269125831723,-2,1,-1,-1,-2,-1,-1,1
1481269125831723,0,-1,0,-1,0,-2,-1,-1
1481269125846312,-1,-2,-3,-2,0,0,0,-2
1481269125846312,0,-1,-3,-1,-1,0,1,-1
1481269125854313,-1,-2,1,-1,0,-1,0,-1
1481269125854313,-5,-4,3,3,1,-1,0,-2
1481269125869232,0,0,-1,-1,-1,0,-2,0
1481269125869232,0,0,-1,0,-1,0,0,1
1481269125877234,0,-1,-3,-2,-1,1,-1,0
1481269125877234,1,1,-2,2,0,1,0,-2
1481269125892233,1,-1,-1,-1,-1,-1,0,0
1481269125892233,-3,-3,0,-1,-1,0,1,0
1481269125893230,1,1,0,-4,-2,0,-2,1
1481269125893230,-1,-3,-3,-5,-1,-2,-1,1
1481269125906233,-3,-3,-1,1,1,-2,0,-2
1481269125906233,0,-1,-2,-2,0,-3,1,-1
1481269125914240,0,-2,-2,2,1,0,-1,0
1481269125914240,-2,-5,0,-1,0,1,-3,-1
1481269125929248,0,0,0,0,-1,0,-2,-3
1481269125929248,-1,-2,-2,-3,0,1,-2,-2
1481269125936747,1,-1,0,2,1,-3,2,-2
1481269125936747,-1,-1,-1,-1,-1,-1,0,-2
1481269125943912,0,-2,-1,-3,0,-1,-1,0
1481269125943912,-1,-1,0,-1,-1,0,-2,-1
1481269125950818,-4,-3,0,2,2,0,-4,0
1481269125950818,1,-2,0,1,0,-1,1,0
1481269125966883,-2,-1,1,0,-1,-1,0,-1
1481269125966883,-1,0,0,1,-1,-1,0,0
1481269125973910,-5,-6,-1,1,1,0,-2,-2
1481269125973910,-1,-1,-1,-1,-3,-1,0,0
1481269125988819,2,0,-2,1,-1,1,-2,-1
1481269125988819,1,-3,-2,1,0,1,0,-1
1481269125996821,-2,-3,1,1,-2,0,0,0
1481269125996821,-3,-1,-2,-2,-1,0,1,-1
1481269126003824,-2,-2,-2,1,-1,-2,-2,0
1481269126003824,-2,-1,0,1,1,-2,-1,-4
1481269126011946,0,0,1,-1,-1,0,-1,-3
1481269126011946,1,-1,-3,-1,-3,-1,0,0
1481269126026927,-2,-2,-1,-2,-2,0,1,-1
1481269126026927,0,0,1,0,-2,1,1,-1
1481269126033918,-1,1,-2,-3,0,2,0,-3
1481269126033918,1,0,0,-1,0,1,1,-2
1481269126049055,-4,-2,-1,2,0,0,-1,1
1481269126049055,0,-2,-1,-1,-2,-1,-2,1
1481269126057007,-4,-3,1,-1,0,-2,0,-2
1481269126057007,-1,0,0,-2,1,-3,0,1
1481269126072012,1,1,0,-2,-1,-1,-1,1
1481269126072012,-1,2,-3,-3,-2,-1,-2,0
1481269126073009,5,0,-3,-5,-3,-1,0,3
1481269126073009,-3,-2,1,-1,-1,0,-1,0
1481269126086008,-1,1,0,0,0,-1,-2,-2
1481269126086008,0,-2,-2,1,1,1,0,-1
1481269126094013,0,-1,-3,1,1,-1,-2,-2
1481269126094013,-1,-1,1,-2,1,-3,-2,-2
1481269126109091,1,-2,1,-1,-1,0,1,-3
1481269126109091,-4,-1,1,-1,-1,0,-2,-1
1481269126117015,1,2,-1,-2,-3,-3,1,0
1481269126117015,-2,-1,-1,1,1,2,1,0
1481269126132591,-2,-1,0,0,0,-1,0,1
1481269126132591,1,0,-1,-1,-1,-1,0,-1
1481269126133056,0,-1,-1,0,-2,0,2,1
1481269126133056,1,0,-2,0,0,-1,-2,-2
1481269126146167,0,-1,1,-1,-1,-1,-1,-2
1481269126146167,-1,-1,0,0,1,1,-1,-1
1481269126154249,1,-1,-3,-3,-1,-1,-3,0
1481269126154249,-2,-3,1,1,0,1,-2,-1
1481269126169228,1,-1,-2,-2,-3,0,-1,1
1481269126169228,-1,-1,-1,-2,-2,-2,0,0
1481269126177164,-3,-2,1,2,-2,-1,-2,-4
1481269126177164,1,1,-3,-4,-3,-2,-1,1
1481269126192230,-1,-1,-2,-3,-1,-3,-1,0
1481269126192230,1,-2,-1,-2,-2,-3,0,2
1481269126193167,0,0,0,-1,0,-1,-1,1
1481269126193167,1,0,-1,0,-1,-2,-2,-1
1481269126206249,-2,-2,-2,-2,-2,-1,-1,-3
1481269126206249,-2,-4,-3,-6,0,-2,-2,0
1481269126214183,-1,-1,-1,2,1,-1,-2,-3
1481269126214183,2,-1,-1,-1,-1,-1,-1,1
1481269126229183,1,1,0,2,-1,-1,-1,1
1481269126229183,-2,-1,0,0,-1,1,-1,-2
1481269126237184,-2,-1,-1,-1,-2,1,-3,-1
1481269126237184,-1,0,0,-2,-1,-1,-1,0
1481269126252298,-1,-4,-4,-2,1,-2,2,-2
1481269126252298,-1,1,0,-1,-1,-2,1,-3
1481269126253271,3,0,-1,-2,-1,-1,1,-1
1481269126253271,-2,-3,0,0,0,1,0,-1
1481269126266225,1,-4,-1,-3,-1,0,0,-1
1481269126266225,4,2,-4,0,1,-1,-2,2
1481269126274231,-1,-3,-8,-5,-2,-1,1,0
1481269126274231,0,2,8,4,1,-1,-1,0
1481269126289222,-3,0,10,-3,-1,-2,0,0
1481269126289222,0,1,18,6,-2,2,0,-1
1481269126297334,-1,3,-29,-9,1,-1,-1,-1
1481269126297334,-3,-12,19,-1,-4,-1,0,-1
1481269126312324,0,1,-4,7,1,1,-3,0
1481269126312324,-1,-4,-15,0,1,0,-2,-2
1481269126319307,2,4,25,3,0,-2,1,4
1481269126319307,-3,-6,-58,-8,-1,-1,-1,-1
1481269126326733,0,5,39,-5,-4,-2,0,1
1481269126326733,1,-1,31,4,0,-1,0,-4
1481269126334235,0,-1,-12,2,-1,1,0,-1
1481269126334235,0,-3,11,3,-2,-2,0,-2
1481269126349397,-2,-5,-49,-8,-2,-1,-1,-2
1481269126349397,0,0,3,-3,-1,-2,-1,-1
1481269126357413,-2,-2,11,0,0,-2,-1,0
1481269126357413,-1,1,0,0,-1,-1,-1,3
1481269126372408,0,2,10,10,3,0,0,2
1481269126372408,-3,-4,-10,-7,-2,0,0,0
1481269126373328,-2,-7,-6,0,-5,-2,-1,-4
1481269126373328,1,-5,-33,-10,0,0,1,-1
1481269126386330,2,4,44,6,0,1,1,-1
1481269126386330,-2,2,-2,3,-1,0,-1,0
1481269126394460,-3,-2,1,-1,0,2,-1,1
1481269126394460,-3,-1,1,1,1,0,-2,0
1481269126409461,-2,-6,1,-15,-8,-3,-2,-2
1481269126409461,2,3,16,26,4,4,1,3
1481269126417334,2,1,-1,2,1,0,-3,-1
1481269126417334,-3,-7,-2,19,3,-2,-1,-3
1481269126432426,0,-2,-55,-56,-21,0,1,0
1481269126432426,-2,-3,-1,-6,-5,-5,-2,-3
1481269126433432,-1,1,14,-8,-4,-3,-3,-3
1481269126433432,1,3,-14,-2,-5,-3,-2,-1
1481269126446539,1,0,10,12,15,3,1,1
1481269126446539,-2,-3,-37,-10,-4,-2,0,1
1481269126454513,-2,-1,57,13,4,0,1,-1
1481269126454513,1,3,13,0,0,-2,0,0
1481269126469461,-1,-1,-7,9,0,-5,-2,-3
1481269126469461,2,-3,-11,-7,-1,-1,0,1
1481269126477564,-2,-7,-45,-2,0,-1,-2,-3
1481269126477564,-3,4,-12,-8,-4,-2,-2,-2
1481269126492565,-1,5,41,18,0,0,-2,0
1481269126492565,-1,-3,-5,-3,2,1,0,-1
1481269126493467,-2,0,6,0,-4,-1,0,1
1481269126493467,-1,-3,-10,-7,-2,1,-2,-1
1481269126506543,0,-4,-29,4,2,0,1,1
1481269126506543,-1,-1,6,-1,0,-1,0,-2
1481269126513542,-4,0,-18,2,-1,-3,-2,-4
1481269126513542,0,0,27,-1,-2,0,1,-5
1481269126528978,2,-1,-18,-12,-4,0,-3,-3
1481269126528978,-4,-2,3,2,2,-1,-1,-3
1481269126537542,3,0,-4,2,1,0,3,-1
1481269126537542,-1,0,-6,-9,-4,-1,3,0
1481269126560838,-2,-4,0,1,-4,-1,0,-5
1481269126560838,1,0,-7,-10,-4,1,-2,-2
1481269126560838,-1,-2,-4,2,3,-2,-1,-1
1481269126560838,1,1,13,2,3,0,-1,-2
1481269126566788,-3,-3,-28,1,1,-1,-1,0
1481269126566788,1,0,17,0,1,-1,-3,3
1481269126573867,1,1,16,1,0,-1,-1,3
1481269126573867,1,-1,21,2,-3,0,-1,1
1481269126588872,-3,-2,-17,4,1,-1,1,0
1481269126588872,0,-2,-29,-4,0,-2,-1,-1
1481269126596885,-1,-1,4,-11,-5,-1,-3,-2
1481269126596885,0,2,15,8,4,1,-2,0
1481269126611792,1,1,6,4,0,-2,-2,2
1481269126611792,-2,-6,-33,-14,-1,-3,2,2
1481269126612789,-2,0,10,0,-7,-1,-1,0
1481269126612789,-1,3,-3,-22,-10,0,0,1
1481269126626868,1,-2,9,21,12,2,0,0
1481269126626868,-2,1,2,-13,-3,-1,1,-2
1481269126634343,1,0,-10,-1,-2,1,-1,1
1481269126634343,-1,-4,-3,-4,1,-1,0,0
1481269126649386,-2,-2,-2,-8,-5,-3,-1,-2
1481269126649386,-1,-3,18,3,-1,-2,-3,-1
1481269126657408,2,2,1,7,6,2,1,2
1481269126657408,1,0,-1,8,3,-1,-1,-1
1481269126672409,-2,-2,4,2,0,1,-1,-2
1481269126672409,1,1,-8,3,0,-2,-1,-1
1481269126672409,-3,-2,-4,-10,-4,-3,-3,-2
1481269126672409,-2,-5,-15,-3,-4,-2,-1,0
1481269126686320,-1,-2,26,14,7,5,2,0
1481269126686320,0,0,15,19,2,4,0,1
1481269126694420,-2,0,-1,1,1,-1,-2,2
1481269126694420,-1,-1,10,-5,0,-1,-1,-2
1481269126709421,-1,0,-16,-17,-6,-3,0,-1
1481269126709421,0,-4,-12,-3,-2,-2,2,0
1481269126717324,-3,-3,10,10,3,-2,1,-3
1481269126717324,-2,-2,-29,-9,2,0,1,-2
1481269126732354,0,-3,6,10,-2,-1,-2,0
1481269126732354,0,2,-4,-5,-4,-2,-3,-3
1481269126733363,1,-1,-15,-9,-6,2,3,0
1481269126733363,3,1,5,-1,2,-1,-1,2
1481269126746923,0,0,4,-1,-2,0,-1,-1
1481269126746923,-1,-1,8,-3,-1,-2,-1,0
1481269126754030,0,-6,-19,-18,-5,-4,-2,-3
1481269126754030,-1,1,9,30,2,1,0,-2
1481269126768944,0,0,3,-4,1,-2,-1,-2
1481269126768944,-4,-3,-9,-19,-11,-3,-3,-4
1481269126776972,-3,-2,-3,11,-10,-6,-1,-3
1481269126776972,0,-1,4,-2,1,-2,0,2
1481269126792024,3,0,-1,7,8,2,0,1
1481269126792024,-2,-2,5,10,2,0,0,-2
1481269126792945,-3,-2,-2,-11,2,1,0,-3
1481269126792945,-3,-3,0,-9,-10,-4,-1,-2
1481269126806919,-1,-2,-5,-4,-5,-2,-1,1
1481269126806919,0,-1,-4,-11,1,1,-1,2
1481269126813967,3,1,15,4,-1,1,0,3
1481269126813967,-2,-3,-7,4,1,0,-1,1
1481269126829461,-2,-4,-2,-10,-3,0,-1,-3
1481269126829461,0,4,5,7,2,0,0,-2
1481269126836463,0,-1,-8,6,3,1,0,-1
1481269126836463,1,3,0,15,3,0,1,-1
1481269126851088,0,0,1,-8,-3,-2,-1,-2
1481269126851088,0,-1,2,11,-1,-2,0,0
1481269126860161,-1,-2,-7,-3,2,0,-2,1
1481269126860161,0,2,-7,-12,-2,0,-1,-2
1481269126866085,-2,-4,5,0,-2,-1,-2,0
1481269126866085,0,-1,-3,0,-2,-2,0,0
1481269126874089,-2,-2,2,-27,0,-3,-3,-2
1481269126874089,0,1,7,7,1,2,-1,-1
1481269126889089,-2,-1,-4,4,8,2,-1,-2
1481269126889089,0,-1,3,5,-1,1,1,0
1481269126896090,2,7,14,23,3,0,2,1
1481269126896090,-2,-4,-7,-20,-8,-4,-1,-2
1481269126911087,0,0,-12,4,-6,-4,0,1
1481269126911087,-1,-3,2,0,4,0,-2,-1
1481269126920165,2,0,-6,-5,-4,0,-2,-3
1481269126920165,-1,0,-1,1,-3,-1,-1,-1
1481269126926673,2,3,5,-5,-2,0,0,1
1481269126926673,-3,1,-4,-3,-1,-2,-1,0
1481269126934174,0,-5,-5,1,0,-2,0,-1
1481269126934174,-2,-2,4,3,5,1,0,-1
1481269126948611,-6,-4,-3,-3,-1,-3,-2,-2
1481269126948611,-2,4,3,-4,-3,-2,-2,-2
1481269126956622,6,1,1,7,0,1,1,0
1481269126956622,-4,-6,0,-2,0,0,0,-1
1481269126971614,-1,-2,-6,-8,-3,-4,-2,-1
1481269126971614,1,2,0,-33,-19,-3,0,1
1481269126979612,1,6,14,66,57,15,6,8
1481269126979612,2,0,0,10,-1,-1,-2,0
1481269126994624,0,-1,-2,10,3,2,1,-2
1481269126994624,-3,-7,-6,-21,-6,-4,-4,-1
1481269126995535,-2,-1,-8,-5,-13,-4,-1,-3
1481269126995535,0,1,5,-2,3,-1,0,0
1481269127008616,-3,-4,-2,-4,0,2,-1,0
1481269127008616,-2,-3,-2,9,4,0,-2,-3
1481269127016541,-1,-4,-30,-28,-16,-3,-2,0
1481269127016541,0,3,17,1,1,-2,-1,-1
1481269127031555,0,-1,-3,-3,-11,-2,0,-1
1481269127031555,1,-1,0,7,5,2,0,-1
1481269127039670,-3,-3,3,-5,1,-2,-2,-2
1481269127039670,1,-2,-11,-1,-3,-3,-1,0
1481269127054623,1,0,2,-14,0,-1,0,-2
1481269127054623,3,-1,4,5,0,0,2,-1
1481269127055591,-2,-2,-3,-12,-13,-3,-1,-2
1481269127055591,-2,0,-1,-9,-3,-2,-2,-1
1481269127068613,-3,0,4,3,-1,-1,-2,0
1481269127068613,-2,-2,-1,5,3,-2,0,0
1481269127076591,0,0,-1,-6,-7,-1,0,1
1481269127076591,0,-2,-4,-7,-2,-3,-3,-2
1481269127091592,-3,-3,-5,-3,1,-2,-3,-3
1481269127091592,1,1,7,39,5,5,1,2
1481269127099593,-3,-4,-3,-19,-11,-3,-4,-1
1481269127099593,2,2,6,11,18,6,0,2
1481269127114674,0,-2,-9,-14,-6,-1,0,-2
1481269127114674,-3,-5,-3,5,4,0,0,-2
1481269127115595,0,-3,3,0,-3,-2,-2,-4
1481269127115595,-1,-2,-7,3,-1,-2,0,-1
1481269127129109,0,-1,2,1,-1,-2,-2,-3
1481269127129109,2,2,1,8,3,1,1,0
1481269127136610,-1,-7,1,10,-5,-1,-2,-3
1481269127136610,-1,-5,-5,-9,-2,0,0,-2
1481269127151725,-2,0,2,2,2,-1,0,-1
1481269127151725,1,1,-2,1,-2,-1,-2,1
1481269127159745,0,1,1,-21,0,-2,-1,1
1481269127159745,-2,-2,-17,-7,-13,-3,-2,-4
1481269127174747,2,2,7,18,7,1,2,1
1481269127174747,-1,-2,-3,-14,-3,0,-2,-1
1481269127175701,-5,-1,-2,8,6,2,-1,-2
1481269127175701,-2,-2,4,-17,-10,-2,-1,0
1481269127188670,1,1,0,-15,0,1,0,3
1481269127188670,-4,-3,-1,-2,2,0,0,-1
1481269127196671,-1,-3,-3,-2,0,-1,0,-2
1481269127196671,0,-1,0,0,3,-3,0,-2
1481269127211750,-2,2,1,-26,-23,-2,-1,-2
1481269127211750,-3,0,1,18,12,1,-2,0
1481269127219673,2,1,-6,0,-4,0,-2,0
1481269127219673,-1,0,10,5,1,-1,-1,0
1481269127235199,1,-3,-2,8,2,-2,-3,-2
1481269127235199,-1,-2,-2,-15,-7,-4,-1,-2
1481269127235739,-4,-2,2,1,-5,-2,-2,-5
1481269127235739,-1,-3,6,7,3,3,0,0
1481269127249204,-2,-4,-16,2,-3,-1,1,0
1481269127249204,0,1,-2,0,5,-1,0,-1
1481269127256203,6,1,-1,-8,0,-3,-1,4
1481269127256203,-1,1,2,-11,-6,0,-3,1
1481269127273203,0,0,7,15,7,0,-1,2
1481269127273203,0,-1,1,13,-4,2,2,-2
1481269127279297,1,-1,-11,-2,-1,-2,1,3
1481269127279297,0,-2,8,-4,1,0,1,0
1481269127295311,-2,0,7,-5,0,-1,-1,-3
1481269127295311,1,-1,-6,-15,-4,-1,1,0
1481269127295311,-1,1,7,1,-3,0,-1,-1
1481269127295311,-2,-3,-18,-1,-1,-1,-1,0
1481269127309244,-1,-3,-3,5,-1,-3,-1,-1
1481269127309244,-1,-2,6,2,-4,-1,-2,-2
1481269127316203,-3,-5,0,-10,7,2,2,-2
1481269127316203,-1,-1,0,14,4,1,0,-2
1481269127331887,1,0,-1,4,3,1,0,-1
1481269127331887,-3,-2,-1,-4,-5,-2,-2,0
1481269127340030,0,-2,-4,-7,-6,-3,-1,0
1481269127340030,0,0,0,6,3,-1,-2,2
1481269127355030,0,-2,2,0,0,0,0,-1
1481269127355030,-3,-2,-8,-12,-5,-4,-2,-4
1481269127355030,1,1,10,19,4,1,0,-3
1481269127355030,0,1,3,-7,0,-1,-2,-1
1481269127369013,-4,-3,4,5,1,-1,0,-2
1481269127369013,-1,-2,-12,-21,-6,-1,-2,0
1481269127376950,-1,-4,-3,-11,-4,-3,-1,0
1481269127376950,-1,0,-2,-2,-6,-1,0,1
1481269127392920,0,0,6,1,0,0,-2,0
1481269127392920,-1,-5,3,6,5,0,-1,0
1481269127399938,-2,0,-1,-1,-2,0,0,-1
1481269127399938,0,2,-6,-2,-2,-1,0,-2
1481269127414936,0,1,-1,-2,-3,-1,-1,1
1481269127414936,1,-2,4,-5,-3,-3,-1,-1
1481269127414936,0,1,-2,44,6,1,-1,0
1481269127414936,-2,-2,5,-6,3,2,-2,-1
1481269127428978,-1,-3,-5,-4,1,0,0,-3
1481269127428978,-1,-1,-2,2,3,0,0,-2
1481269127436478,-1,0,1,-9,-6,-3,-1,-2
1481269127436478,-1,-2,0,-6,-2,-2,-2,0
1481269127451017,0,0,-4,4,0,-1,-1,2
1481269127451017,1,0,0,0,0,-4,-4,1
1481269127467018,-1,-5,1,-10,0,-1,-2,-4
1481269127467018,0,-2,-2,3,0,-2,-1,-1
1481269127475086,-2,-2,-6,-21,-1,0,0,0
1481269127475086,0,1,9,16,1,-1,1,-1
1481269127475086,-1,-2,-12,-7,-2,1,-2,1
1481269127475086,-1,-3,-2,1,-3,-2,0,-2
1481269127489019,-1,-2,-3,-3,-6,-2,-1,1
1481269127489019,-1,-3,-12,-4,-3,0,-1,-1
1481269127496107,-2,3,20,0,10,3,1,-1
1481269127496107,1,-1,-4,-1,1,-1,0,-3
1481269127511098,0,-2,-3,2,-4,-5,-3,-3
1481269127511098,2,1,3,-16,-5,1,-1,2
1481269127520031,-3,-4,-13,-6,-6,-2,-1,-1
1481269127520031,4,-1,4,11,4,0,2,0
1481269127535182,-2,-5,-3,-5,-1,-1,-2,-5
1481269127535182,-2,0,3,-3,-4,-1,-1,-2
1481269127535599,1,-1,-1,5,0,-1,-2,1
1481269127535599,0,-1,-1,-15,-6,-3,-2,3
1481269127548630,-3,-2,-2,5,-5,-2,-2,-1
1481269127548630,-2,-3,3,7,4,0,-1,0
1481269127556688,-1,0,-6,-27,-8,-3,-1,0
1481269127556688,-3,-2,10,15,-1,0,1,1
1481269127571708,-1,1,-16,2,7,1,1,0
1481269127571708,-2,-2,-8,-6,-4,-1,-1,-2
1481269127579616,0,3,14,-1,-1,-3,2,-3
1481269127579616,-1,1,-1,0,-1,-1,-4,-3
1481269127594688,2,3,7,-1,-2,0,-1,-1
1481269127594688,2,0,-4,-2,2,-1,1,0
1481269127595611,0,-1,0,-4,-6,1,0,1
1481269127595611,0,0,-7,-12,-6,-3,-1,-1
1481269127608612,-2,-1,1,20,6,1,-1,1
1481269127608612,-3,-3,-2,-2,-3,-1,-1,-4
1481269127616611,1,1,-4,-23,-3,-2,0,2
1481269127616611,-2,-2,0,8,-2,-1,0,-3
1481269127631628,-1,0,1,8,-1,-1,-3,0
1481269127631628,-1,1,3,2,2,-2,-1,1
1481269127639129,1,-1,-2,2,0,-1,-1,1
1481269127639129,-3,-1,-3,-10,-2,-1,1,-3
1481269127654555,1,0,1,-2,0,-1,-1,-2
1481269127654555,-3,-5,0,6,3,-1,-3,-1
1481269127655477,1,-1,-4,-4,-10,1,-1,-1
1481269127655477,-3,1,1,13,7,1,-1,-1
1481269127668542,-4,-4,-20,-2,0,1,0,-5
1481269127668542,1,4,18,-5,-4,-1,1,1
1481269127676584,-2,-4,-7,-5,5,-2,-1,-2
1481269127676584,2,0,-21,14,6,3,0,2
1481269127691554,-2,-2,40,-2,-3,1,1,-1
1481269127691554,-1,-2,-7,3,1,1,-1,-1
1481269127699480,-2,-2,-2,-3,-3,-2,1,-3
1481269127699480,2,0,-7,-14,-7,-4,-3,0
1481269127714559,1,-1,0,9,5,1,1,2
1481269127714559,1,1,-9,-1,3,-1,-2,2
1481269127715478,-1,0,10,29,4,1,1,-1
1481269127715478,0,-4,0,-12,-2,0,1,1
1481269127729053,1,-2,-4,-5,-3,-5,0,0
1481269127729053,0,-2,-1,-3,-6,-1,-1,-1
1481269127736554,-7,-6,-12,5,2,0,-1,-1
1481269127736554,2,-3,2,-5,0,0,0,0
1481269127751628,-1,0,-3,-29,-7,3,-2,0
1481269127751628,0,1,3,30,13,3,1,-1
1481269127759560,-1,-3,-2,-27,-6,-3,-1,-1
1481269127759560,0,3,7,-3,-2,2,2,0
1481269127773582,-1,-3,-1,11,3,-1,2,-1
1481269127773582,-2,-1,3,-18,-4,0,1,-2
1481269127782626,-3,-3,-30,0,-2,0,-1,-2
1481269127782626,-5,-2,18,-3,-4,-3,-1,-5
1481269127788629,2,-1,12,-4,-3,1,-4,-2
1481269127788629,1,0,-6,-8,-2,2,0,3
1481269127796563,1,2,20,12,-1,-5,-2,0
1481269127796563,0,-3,-14,-8,-1,0,-1,1
1481269127811563,0,1,-11,22,3,-2,1,3
1481269127811563,1,-2,1,-12,3,-1,0,1
1481269127827622,-2,-1,1,4,3,1,-3,-1
1481269127827622,-3,-6,-25,5,2,2,1,0
1481269127834077,-1,-2,19,-5,-3,-1,-1,0
1481269127834077,0,-1,0,6,-3,-2,-2,-3
1481269127842626,1,-1,-2,-5,-4,0,-1,1
1481269127842626,-6,0,-19,3,1,-3,-4,-5
1481269127848600,-2,-2,26,-2,-3,-1,-1,-2
1481269127848600,-1,-6,-24,-9,-3,-2,-1,1
1481269127856655,-3,2,53,8,-4,-1,-3,-2
1481269127856655,2,-1,-37,-17,3,0,-1,2
1481269127871656,0,2,6,5,-2,-1,0,4
1481269127871656,0,1,8,-16,-9,-2,-1,2
1481269127879656,1,0,-27,7,15,1,-1,2
1481269127879656,-3,-1,47,36,4,1,-2,-1
1481269127893593,0,-2,-40,-14,-1,-2,-1,-2
1481269127893593,0,-2,6,-1,-5,-2,-2,-2
1481269127902653,0,-4,-12,-8,-5,-3,0,-2
1481269127902653,1,-1,11,-5,-3,-1,0,-1
1481269127908594,-2,-1,11,5,4,-2,0,-2
1481269127908594,-2,1,-10,7,-1,0,1,-1
1481269127916592,1,-2,-16,-13,-4,-1,1,0
1481269127916592,1,-3,-4,-1,0,1,-1,1
1481269127931598,-4,-2,3,-7,-4,-2,-1,-2
1481269127931598,-1,0,-8,1,0,-2,0,-3
1481269127939615,2,-1,6,-12,-1,-1,-1,-1
1481269127939615,0,2,19,13,6,1,-1,1
1481269127953612,0,-1,-22,-14,-3,-3,0,2
1481269127953612,0,0,7,4,-2,-2,-1,-3
1481269127962673,-1,-1,-17,8,7,1,1,0
1481269127962673,-2,2,39,-4,-7,-5,-2,-3
1481269127977640,0,2,-17,4,-1,1,-1,2
1481269127977640,-1,2,-2,-1,1,1,-2,1
1481269127977640,-1,-3,11,3,-3,1,0,-1
1481269127977640,-6,-8,-26,-3,3,1,-1,-5
1481269127991610,0,-3,-18,-14,-1,-2,0,-2
1481269127991610,0,3,39,5,-2,-3,0,1
1481269127999680,0,5,2,14,2,1,-1,-1
1481269127999680,1,0,-8,-7,-1,0,1,0
1481269128013616,2,-1,0,-5,-5,0,1,0
1481269128013616,-5,-6,-24,-4,1,-1,-1,-4
1481269128022648,0,-3,-5,-1,-2,-1,0,-1
1481269128022648,-1,0,14,-11,-5,-1,-2,2
1481269128037126,-1,2,-1,-5,-5,-3,-3,0
1481269128037126,-3,-2,-20,7,3,1,-1,-3
1481269128038126,-2,-1,21,3,-2,-3,-1,0
1481269128038126,0,-4,-15,-20,-9,-3,-2,-2
1481269128051209,0,2,14,22,4,2,-1,2
1481269128051209,2,1,1,-22,-6,-1,1,1
1481269128060215,-2,-2,10,-1,-1,-1,-1,-3
1481269128060215,2,1,-17,2,-1,-2,1,-3
1481269128074215,-3,-3,0,-18,-2,0,0,-3
1481269128074215,1,-1,6,9,1,-2,-2,3
1481269128082215,-4,-6,-8,5,-1,2,0,-2
1481269128082215,3,1,7,-10,-6,-1,0,1
1481269128097280,0,-1,-5,11,5,1,-1,1
1481269128097280,-1,-2,-4,-10,-4,-3,-1,-1
1481269128098213,-3,1,-11,-20,4,1,-1,-1
1481269128098213,-1,-2,14,32,7,0,0,3
1481269128111284,1,0,11,-7,-3,-1,0,1
1481269128111284,0,-2,-9,22,1,-1,-2,0
1481269128120216,0,-1,-12,0,-3,-3,-1,-2
1481269128120216,-1,1,-2,-7,-3,-1,-1,0
1481269128134313,-2,-3,-5,-1,1,-2,-1,-4
1481269128134313,2,4,6,-5,3,0,1,-1
1481269128142387,0,1,2,5,-2,0,0,1
1481269128142387,-2,-2,-4,-13,-4,-1,-3,-1
1481269128157320,-6,-6,-5,9,-2,-5,-5,-6
1481269128157320,2,3,-3,33,21,6,1,1
1481269128158383,-1,0,28,0,-6,0,0,0
1481269128158383,2,2,-11,0,-2,0,2,1
1481269128171391,0,-1,-4,-8,-1,1,0,0
1481269128171391,-3,-4,-7,-19,-11,-4,0,-3
1481269128179322,0,-3,5,13,0,-1,-1,-2
1481269128179322,-3,1,13,2,2,-2,-1,-2
1481269128194454,-1,-1,-2,2,0,-2,0,-1
1481269128194454,-2,-3,-17,-2,3,0,-2,-1
1481269128202328,-1,-2,7,-2,-3,-1,-3,-1
1481269128202328,-1,0,4,1,-1,-2,-4,-2
1481269128217374,0,-1,-11,1,2,1,0,1
1481269128217374,-2,-2,10,-3,-4,-1,1,0
1481269128224832,0,-4,-16,-10,-3,-4,0,1
1481269128224832,-2,-1,3,9,-5,-3,0,0
1481269128231866,2,3,23,29,26,8,2,3
1481269128231866,-1,-1,5,-1,-8,-1,0,1
1481269128239833,-3,-1,-22,-9,-9,-6,-2,-2
1481269128239833,-1,-1,1,-2,3,1,2,-1
1481269128253844,2,-2,0,-17,-7,-1,-1,-1
1481269128253844,-2,-7,9,12,1,-1,-1,-1
1481269128261843,1,-1,-10,-8,1,0,1,2
1481269128261843,0,0,-6,-20,-10,-4,-2,-3
1481269128276846,-4,0,-4,10,-5,-1,-1,-3
1481269128276846,-1,-1,-1,-9,10,2,0,2
1481269128277845,1,3,-18,-5,-7,-2,0,1
1481269128277845,-2,-5,17,0,3,-1,-1,2
1481269128291889,1,-1,-3,-3,-2,-2,-1,0
1481269128291889,0,-3,-3,-6,-4,-2,-3,-1
1481269128299845,1,-1,0,8,3,-2,-2,-1
1481269128299845,0,-3,-17,-3,3,0,0,0
1481269128313847,-2,-2,4,-7,-7,-1,1,1
1481269128313847,-2,0,6,0,-2,-1,-3,-3
1481269128321850,-6,-5,10,6,6,4,0,-5
1481269128321850,0,-1,-24,3,3,1,-4,-1
1481269128337359,-2,-3,13,1,3,-2,-1,-4
1481269128337359,0,1,0,-16,-5,-2,0,-1
1481269128338379,0,2,1,2,-2,-1,-1,-1
1481269128338379,-3,-1,-19,7,-1,-1,1,-1
1481269128352978,-1,0,-9,-33,-12,-5,0,-4
1481269128352978,-1,0,3,14,4,0,-1,-1
1481269128360029,-3,-5,1,-6,1,0,-2,-4
1481269128360029,0,-2,5,0,-3,-1,-1,-1
1481269128373997,0,1,-12,2,-3,0,-1,1
1481269128373997,-1,0,-7,-11,-5,-3,-3,0
1481269128381950,0,2,12,6,4,1,0,1
1481269128381950,3,3,29,10,4,1,-1,3
1481269128397031,-2,1,-5,-13,-12,-4,-3,-4
1481269128397031,3,1,4,23,19,8,7,2
1481269128397949,1,-3,-6,-1,-3,-3,-2,0
1481269128397949,-1,-2,0,-3,0,1,-1,-2
1481269128411951,2,-4,-6,-2,7,1,-2,0
1481269128411951,2,0,2,-9,-16,-4,-2,0
1481269128419048,2,2,9,-10,-1,-2,-2,-1
1481269128419048,0,-1,-1,1,-2,-1,1,-2
1481269128433960,-3,-6,-13,9,1,1,-1,0
1481269128433960,0,0,1,-1,-1,-3,-2,-2
1481269128442048,-2,1,-2,18,3,0,-1,-2
1481269128442048,0,1,-7,-8,0,1,-1,-2
1481269128456970,-2,-1,-1,6,2,1,0,-2
1481269128456970,-1,-5,-18,-21,-9,-1,-1,-2
1481269128457971,0,0,20,3,-6,-1,-2,1
1481269128457971,-1,-3,0,4,6,0,-1,-1
1481269128471968,1,-1,5,10,3,0,-2,0
1481269128471968,-4,-2,-4,-10,-11,-4,-4,-2
1481269128478968,-1,1,-10,-34,7,1,-1,-1
1481269128478968,-2,-4,5,15,-3,-1,-1,-1
1481269128503049,0,-2,-5,-8,5,2,2,1
1481269128503049,-1,-3,0,-5,-2,-2,-1,-3
1481269128504004,1,-1,-11,1,-2,-2,-2,-1
1481269128504004,2,0,2,7,1,-1,-3,-1
1481269128516974,3,1,2,-11,-4,1,-1,1
1481269128516974,-2,-1,11,5,9,0,0,-2
1481269128518024,-2,-1,-6,14,-2,1,-1,0
1481269128518024,-1,0,-4,0,1,-1,1,-1
1481269128531990,2,-2,-3,1,-6,-4,1,-1
1481269128531990,0,-2,-3,-17,-6,-2,-2,-1
1481269128539490,0,0,0,-1,-1,-1,-1,0
1481269128539490,-1,-2,-7,-5,0,-1,0,0
1481269128553546,-2,-3,1,6,2,1,-3,-2
1481269128553546,0,-1,3,6,0,-1,0,1
1481269128562678,-2,-4,-1,-4,-1,-2,1,-2
1481269128562678,-2,0,-11,-17,-9,-3,0,-2
1481269128577612,-2,1,4,-12,-2,-2,0,-1
1481269128577612,1,0,-44,7,3,1,-1,-1
1481269128577612,0,2,72,10,-3,-1,-3,2
1481269128577612,1,-4,-37,1,-2,-3,-1,-1
1481269128591548,0,0,12,15,-4,-3,-1,-1
1481269128591548,2,3,7,-33,5,1,2,0
1481269128598552,-2,-1,-30,21,3,-1,0,0
1481269128598552,-4,-3,13,3,7,1,1,-2
1481269128613546,-3,-1,-3,5,-12,0,0,1
1481269128613546,-1,0,-2,7,-1,-4,-1,1
1481269128622680,-2,-1,1,-10,-1,1,-2,0
1481269128622680,1,0,15,-3,-2,0,-2,-2
1481269128637618,-1,-1,-11,1,5,-2,-1,0
1481269128637618,-4,-3,17,4,-3,-2,0,-1
1481269128638069,-1,-2,-10,2,2,0,-2,-1
1481269128638069,-1,-2,-4,-7,-6,0,-1,0
1481269128651923,-3,-2,2,-2,5,2,2,2
1481269128651923,-1,0,9,8,-2,0,0,-3
1481269128658962,-1,-3,-10,-5,-3,-2,-1,-2
1481269128658962,-1,2,0,0,-1,0,-1,-1
1481269128674031,-1,0,-4,0,0,-3,1,-3
1481269128674031,0,-2,7,-2,-5,-1,1,4
1481269128681952,2,1,-13,-8,9,4,1,1
1481269128681952,-4,-3,3,26,12,4,1,-2
1481269128696989,-1,-2,2,8,1,1,-4,-1
1481269128696989,1,-2,7,-1,-3,-2,-2,-2
1481269128704970,0,-3,-3,-9,-7,-2,-1,-2
1481269128704970,0,-1,-31,-12,-2,-2,0,1
1481269128720017,0,-3,4,-7,-3,-3,-2,0
1481269128720017,-2,-1,10,14,-2,1,-2,-1
1481269128721951,0,2,-4,1,-4,1,-1,1
1481269128721951,0,1,6,-4,7,0,-2,-2
1481269128734505,0,0,-7,-8,-1,-1,0,-2
1481269128734505,-6,-3,-4,2,1,-2,-2,-3
1481269128742576,1,2,-9,6,-2,-1,1,0
1481269128742576,-4,-3,1,-17,-6,-1,-2,1
1481269128756511,-1,-2,-1,-1,2,-2,-1,-4
1481269128756511,-1,-2,4,-1,2,-2,0,-3
1481269128764508,-1,0,-5,-5,-4,-3,1,-2
1481269128764508,3,3,4,4,0,-2,-1,2
1481269128771588,-2,-2,-2,-3,0,1,-1,2
1481269128771588,0,1,-5,5,-3,0,0,-2
1481269128778591,-1,-2,-2,-1,-1,-1,-2,-1
1481269128778591,3,0,-6,-18,-7,-1,-3,0
1481269128793590,0,-1,11,12,7,1,0,-1
1481269128793590,0,0,-7,2,0,-1,-1,1
1481269128802640,-1,-3,-10,-11,-3,-3,1,-1
1481269128802640,-2,-2,-1,-6,-4,-1,-1,0
1481269128816608,-3,-5,-6,-1,-2,-1,-3,-3
1481269128816608,1,0,16,8,-2,-1,-2,1
1481269128824841,0,0,5,6,-1,0,0,3
1481269128824841,-2,-1,7,17,-6,-3,-1,1
1481269128831904,1,0,-13,-6,5,-2,0,2
1481269128831904,1,-2,-6,0,-9,0,0,1
1481269128839407,-5,-6,5,8,4,1,-2,-6
1481269128839407,-2,-1,2,1,-2,-1,1,-3
1481269128855554,-1,2,-2,2,-2,0,1,-1
1481269128855554,1,2,-13,-9,-2,-2,-3,-1
1481269128862686,-1,0,22,-11,-6,-3,-1,1
1481269128862686,-2,-5,-8,2,1,-2,-1,-3
1481269128876645,1,1,5,-5,-2,-1,-1,-3
1481269128876645,0,-2,2,-9,3,1,1,1
1481269128884637,1,1,-12,12,-3,-1,-1,-1
1481269128884637,-3,-1,3,4,-1,0,0,-2
1481269128899559,1,0,1,-7,-5,-2,-2,0
1481269128899559,-2,-2,-6,-1,1,2,0,1
1481269128900556,0,-2,-12,-4,-3,0,-1,-2
1481269128900556,1,-1,-3,-11,-4,-2,0,-1
1481269128914560,-1,1,13,12,5,2,0,1
1481269128914560,-3,-1,-3,-3,1,-1,-2,-2
1481269128922624,-1,-3,0,-1,0,1,-1,-1
1481269128922624,6,4,6,3,3,0,0,4
1481269128936575,-1,-3,-8,-10,-8,-1,2,-2
1481269128936575,-1,-1,-8,1,1,-3,-2,-3
1481269128944689,-2,-3,28,4,2,-1,-1,-1
1481269128944689,-1,-2,-16,-28,-6,-1,-1,-1
1481269128959613,-1,-3,6,-1,-6,-4,-4,-1
1481269128959613,-1,1,12,26,-3,0,-2,0
1481269128960624,0,-1,1,-9,13,4,1,1
1481269128960624,-2,1,5,10,1,0,1,1
1481269128973623,0,0,-6,3,3,0,2,-1
1481269128973623,0,-1,-1,-7,-4,-3,2,-1
1481269128982646,0,-2,-17,-11,-8,-2,-1,-1
1481269128982646,-1,-2,8,7,1,-1,0,-3
1481269128996710,-2,-1,-7,-6,-2,1,-2,-1
1481269128996710,-2,-2,-3,-6,-4,1,-1,-1
1481269129004693,-2,0,-6,8,9,-1,1,-1
1481269129004693,-1,-2,6,9,2,2,-1,0
1481269129019633,0,0,7,6,-2,-3,-2,-2
1481269129019633,-4,-6,-8,-6,1,-1,0,-3
1481269129020613,1,1,-3,-10,-5,-3,0,0
1481269129020613,0,-3,1,8,3,0,-1,-3
1481269129034130,-1,-1,-4,-1,2,-1,0,-1
1481269129034130,1,-2,-3,3,0,0,-1,0
1481269129041899,-4,-2,-4,-2,-4,-4,-2,-4
1481269129041899,-2,0,2,-1,0,0,-1,0
1481269129056942,1,0,-3,-3,-3,-1,-1,-1
1481269129056942,-1,-2,-1,-4,1,1,-2,1
1481269129064810,-1,-1,-3,-5,-10,-1,-2,-3
1481269129064810,-2,-1,-3,16,13,2,-1,0
1481269129079816,0,-2,6,-25,-6,1,0,-1
1481269129079816,1,0,-1,2,1,-2,2,-1
1481269129079816,-1,1,-6,3,1,-3,-3,-1
1481269129079816,-2,-1,1,-19,-13,-4,0,0
1481269129093812,0,0,-12,7,3,-2,-1,-1
1481269129093812,0,-1,-2,-2,-1,-1,-1,-2
1481269129101879,0,0,1,-8,-4,0,-4,1
1481269129101879,3,-2,2,21,3,4,1,0
1481269129116881,-1,0,3,7,1,-3,-1,0
1481269129116881,-2,-1,2,-17,-10,1,-1,-2
1481269129124901,-1,0,-2,-3,0,-2,0,-2
1481269129124901,-1,-2,-3,-28,-12,-5,-3,-3
1481269129139944,-2,-1,-2,20,11,3,0,0
1481269129139944,-2,0,10,8,1,-2,-1,-2
1481269129139944,0,-1,-2,3,3,0,-2,0
1481269129139944,-5,-3,4,-14,-1,-1,-2,-2
1481269129154160,0,-1,-12,-5,-5,-2,-3,-2
1481269129154160,-1,-1,-13,-4,1,-1,-1,-1
1481269129162239,0,0,4,7,4,1,1,-1
1481269129162239,1,-1,23,-13,-5,-1,0,-1
1481269129176239,-1,-1,-8,-3,-5,-2,-1,-1
1481269129176239,0,0,1,12,9,0,1,-1
1481269129184186,0,-2,-13,9,-3,1,-1,1
1481269129184186,-2,-2,-8,12,1,-2,-1,-1
1481269129199164,1,-1,9,-8,-8,-1,1,1
1481269129199164,-2,-1,-7,-2,4,1,0,0
1481269129200163,-3,0,2,1,-5,-2,0,-3
1481269129200163,-3,-2,-6,0,2,-1,0,-2
1481269129214249,2,0,2,5,-9,-2,-2,0
1481269129214249,-1,0,-1,-22,3,1,0,-1
1481269129222241,0,-1,1,8,-5,-2,-1,1
1481269129222241,1,1,3,13,4,-1,-1,2
1481269129236684,-2,-2,-3,-4,-1,-1,-1,0
1481269129236684,0,-2,-4,-2,-4,-3,-1,0
1481269129244391,4,-1,-37,-17,-6,-1,1,2
1481269129244391,-2,0,35,-22,-2,-3,-3,-1
1481269129259447,-2,0,0,10,2,1,-2,-1
1481269129259447,0,1,6,19,0,-1,-1,0
1481269129260438,-1,-3,-5,8,6,0,-2,-3
1481269129260438,-2,0,-24,-8,-5,-3,-2,-3
1481269129274501,-2,-3,10,-8,1,0,-1,-2
1481269129274501,-1,-3,0,-3,-6,0,2,-2
1481269129282369,-3,-1,2,-5,-2,-1,0,0
1481269129282369,1,-1,-6,-1,1,0,-1,0
1481269129296450,-3,-2,3,6,3,0,-3,-1
1481269129296450,2,1,2,-3,-5,-2,0,1
1481269129304449,-3,-2,10,11,-1,0,-4,-1
1481269129304449,-2,-1,-3,-3,5,0,1,-1
1481269129319428,-1,-4,-6,-7,-8,-5,0,-2
1481269129319428,-2,-1,0,-2,11,6,1,1
1481269129320382,-2,-2,3,-6,-2,-1,1,0
1481269129320382,-1,-2,-8,-1,-6,-3,-2,-1
1481269129335480,0,-3,-11,-19,2,1,-3,-1
1481269129335480,0,1,7,45,-3,0,-3,0
1481269129342583,0,-3,12,5,3,-3,0,-2
1481269129342583,-1,0,-6,-2,3,1,0,-1
1481269129356593,-2,-1,-3,-10,-5,-2,-1,-1
1481269129356593,-1,-2,-1,-17,-5,-3,-2,-3
1481269129364609,1,3,9,-5,1,0,-1,0
1481269129364609,-2,-3,2,11,-5,0,-1,-3
1481269129379624,-2,0,-3,-18,-7,-1,0,-1
1481269129379624,-1,-2,-23,19,13,0,-1,-1
1481269129380515,-1,-3,16,2,-1,-1,0,0
1481269129380515,-1,0,5,5,-7,1,0,1
1481269129393619,0,0,4,-15,4,3,0,0
1481269129393619,0,-1,1,-15,-8,-3,-3,0
1481269129402585,-1,-2,-19,-8,0,-4,-2,-2
1481269129402585,0,-4,-3,2,-2,-3,1,-1
1481269129416522,-2,0,10,8,0,-1,2,-1
1481269129416522,1,0,-6,6,5,-1,1,0
1481269129424519,0,-1,-2,-4,-3,1,1,-1
1481269129424519,-2,-1,-2,5,-1,0,-2,0
1481269129440100,-2,-2,-4,4,0,2,-1,0
1481269129440100,-2,-3,2,-25,-5,-1,-2,-2
1481269129441098,-3,-2,1,-5,2,0,0,-2
1481269129441098,0,2,-8,13,-6,-2,0,-2
1481269129455175,4,0,0,2,7,-1,-2,2
1481269129455175,-2,-4,6,-16,-9,-4,-1,2
1481269129462216,3,-1,3,32,11,2,2,1
1481269129462216,0,-3,-7,-2,2,-1,-1,0
1481269129476114,0,2,-29,-8,-8,-2,0,-1
1481269129476114,-1,0,37,14,-5,-3,-1,0
1481269129492210,1,2,-7,-2,3,1,1,0
1481269129492210,2,1,6,-4,0,-2,-2,-1
1481269129500172,-1,-4,-14,11,3,-2,-2,-2
1481269129500172,2,1,-7,8,1,1,2,-1
1481269129500172,-3,1,1,-14,-6,-3,-2,0
1481269129500172,-1,-2,1,0,5,1,1,-1
1481269129514221,-3,0,3,-3,-1,0,-2,0
1481269129514221,-1,0,-3,-1,-4,-3,-1,-1
1481269129522190,-3,0,-1,-10,-17,-4,-3,-2
1481269129522190,0,0,-1,4,20,1,-2,-1
1481269129536628,-1,-2,12,13,-3,0,-1,1
1481269129536628,-2,-2,-7,0,4,1,0,-2
1481269129544760,-5,-5,1,-1,2,0,1,-4
1481269129544760,-4,-3,-5,-20,-9,-2,-1,-1
1481269129559761,-2,-2,6,7,-1,-2,1,-2
1481269129559761,-1,-1,3,-14,1,0,-1,-2
1481269129560682,2,0,-7,-4,-2,-2,-3,-1
1481269129560682,1,-1,-2,-3,-6,-2,-1,-1
1481269129573803,2,-2,6,7,5,1,0,-1
1481269129573803,-4,-3,-6,-7,-5,-2,-2,-1
1481269129581688,0,-4,-2,-5,0,-1,-2,0
1481269129581688,-1,0,3,9,10,1,0,1
1481269129596771,-2,-3,-1,-3,0,-2,-2,2
1481269129596771,0,-1,-3,-18,-3,-1,0,-2
1481269129612718,0,-2,0,12,1,-1,-3,2
1481269129612718,-1,0,-1,13,1,0,-2,-2
1481269129618754,2,1,10,17,15,5,3,0
1481269129618754,0,-3,-33,5,-3,-4,-2,-2
1481269129627276,-1,-2,19,-8,-3,0,1,0
1481269129627276,1,-1,-7,-4,-8,-1,-3,2
1481269129634273,-6,-1,9,-1,-2,-3,-4,-3
1481269129634273,-2,-3,3,3,0,0,-2,-3
1481269129642203,1,0,-8,2,-3,-1,0,-1
1481269129642203,0,-1,-11,-18,-3,-1,0,1
1481269129656123,0,1,9,19,0,0,1,0
1481269129656123,-2,0,5,4,0,0,-3,0
1481269129665194,-1,-2,-2,-10,-4,0,-1,0
1481269129665194,2,0,8,6,0,-1,1,0
1481269129679204,1,-1,-9,-16,-3,-2,-1,0
1481269129679204,0,0,2,1,-3,-1,1,2
1481269129687151,0,-2,-5,-4,8,-1,-1,1
1481269129687151,-1,-1,1,-13,-9,-3,-1,-1
1481269129694205,1,-1,-2,1,0,-2,-1,-2
1481269129694205,1,1,-5,-3,-11,-3,-3,1
1481269129702191,0,3,3,-9,3,-1,0,-4
1481269129702191,2,-3,-1,13,5,1,2,-1
1481269129716133,1,-3,-6,-38,-14,-4,0,-3
1481269129716133,-3,1,-25,19,8,1,0,-1
1481269129724208,-1,0,15,4,-1,1,-1,0
1481269129724208,0,-1,-2,-5,-2,0,0,1
1481269129739255,-1,0,-6,-1,-1,-2,-3,2
1481269129739255,0,-3,5,-3,1,-1,0,2
1481269129747038,-1,-1,-9,-9,-6,-1,-1,-1
1481269129747038,-2,1,-2,24,12,2,-2,1
1481269129753949,-1,-4,7,-3,-1,0,-1,0
1481269129753949,1,-1,5,9,1,1,0,-1
1481269129762007,1,-1,-4,10,2,3,-1,0
1481269129762007,-3,-2,3,-16,-14,-3,-1,-2
1481269129776949,-2,0,-3,5,9,1,0,-1
1481269129776949,1,1,12,-4,1,0,1,1
1481269129785949,-2,-4,-6,3,-1,0,0,0
1481269129785949,-1,-3,-3,-8,-9,-4,-2,-2
1481269129798948,-1,1,-1,-6,7,1,-1,2
1481269129798948,0,0,3,18,1,-3,-1,0
1481269129807948,0,-1,-2,1,3,-2,-1,-2
1481269129807948,-1,-4,-3,-24,-9,-2,-1,-1
1481269129814010,-1,1,0,29,1,1,0,-5
1481269129814010,2,0,-1,-12,0,0,0,-1
1481269129822987,-4,-1,-4,-7,-6,0,-1,-4
1481269129822987,0,-1,-2,4,0,0,-1,0
1481269129836966,1,-1,-4,-14,-7,-3,-1,-1
1481269129836966,-2,-1,1,-2,-2,-1,-2,-2
1481269129846055,1,0,2,4,7,0,-1,4
1481269129846055,-4,-3,-9,-17,-4,0,-2,-1
1481269129859081,-1,0,1,19,4,0,-1,0
1481269129859081,0,-3,3,-6,-4,-1,-3,0
1481269129868003,-2,0,-4,-6,-8,-2,0,-2
1481269129868003,0,2,1,7,5,-1,2,-4
1481269129890006,1,-2,-3,-16,-4,2,0,-2
1481269129890006,-3,-1,0,-9,-1,-2,-1,-2
1481269129892007,0,0,-1,-12,-5,-2,-2,-3
1481269129892007,2,0,1,14,-4,-1,-2,-1
1481269129897115,-1,-2,-4,-20,-1,-3,-2,-3
1481269129897115,-1,-4,0,19,12,2,1,1
1481269129906007,1,-1,-1,1,1,-1,1,0
1481269129906007,-2,-1,-1,-3,-2,0,0,0
1481269129919085,-3,-2,-2,-10,-7,-2,-1,-3
1481269129919085,-1,0,1,1,-2,1,-2,0
1481269129928108,0,1,-1,-4,0,-1,-2,-1
1481269129928108,0,1,1,16,1,-1,-1,-1
1481269129942719,-5,-1,0,11,1,0,-3,-1
1481269129942719,-2,-2,-5,-26,-8,-3,-3,-2
1481269129944615,-2,-3,-4,6,-2,-1,-1,-1
1481269129944615,-1,1,11,-12,-1,-2,0,-2
1481269129956707,1,-3,-2,14,4,0,2,2
1481269129956707,1,0,-1,-1,-2,0,2,-2
1481269129965617,0,-2,-1,10,7,0,-1,-1
1481269129965617,1,1,1,-24,-7,1,0,0
1481269129978696,0,-2,4,5,-3,-2,-2,-1
1481269129978696,-3,-1,-12,-7,-3,-2,-1,1
1481269129987685,0,-2,-1,2,4,0,-1,1
1481269129987685,-2,-1,5,24,6,-1,-1,0
1481269130002719,0,-2,-5,0,-9,-2,0,-1
1481269130002719,-1,2,4,-11,8,1,2,1
1481269130004619,-2,-3,-4,-13,-14,-2,-2,0
1481269130004619,0,0,-1,17,10,-1,-1,-2
1481269130016618,-1,-5,-4,-3,-2,-2,-2,-2
1481269130016618,1,-1,2,-3,-4,-2,-1,-1
1481269130026174,0,0,-2,-4,-3,-1,0,-3
1481269130026174,-1,-2,-2,-12,-6,-2,-2,-2
1481269130039142,0,1,1,3,2,-2,-2,-2
1481269130039142,-3,-4,0,0,-2,-3,-2,-4
1481269130048213,0,-2,4,-17,-10,1,3,1
1481269130048213,0,-1,-4,1,3,0,2,3
1481269130062205,-1,0,0,0,-2,-1,0,0
1481269130062205,-1,-1,-3,-6,-4,-1,-2,0
1481269130069209,1,-2,2,7,2,-1,-1,0
1481269130069209,0,-2,-5,-6,-2,-1,-1,-1
1481269130076272,0,-1,1,0,4,2,2,1
1481269130076272,-1,0,3,3,-1,-1,2,-2
1481269130085205,0,-1,-3,8,3,1,0,0
1481269130085205,-2,-1,-2,5,1,-2,0,0
1481269130099217,0,0,-3,-2,-2,-1,-3,-1
1481269130099217,-1,-3,-3,-2,-5,0,-1,0
1481269130108211,-1,0,2,7,0,-2,1,-1
1481269130108211,2,0,2,-7,7,1,1,1
1481269130122211,0,-1,-3,-6,-4,-3,-1,-2
1481269130122211,1,0,-1,-5,2,-1,0,0
1481269130129229,1,-2,0,-1,-2,1,0,1
1481269130129229,-3,-2,-3,10,0,1,0,-5
1481269130136730,-1,1,0,-18,-5,-3,-2,1
1481269130136730,0,0,-1,5,4,2,0,0
1481269130145336,-2,-1,-4,0,0,-4,-1,-2
1481269130145336,-3,-2,3,-18,-12,-4,-4,-3
1481269130168398,1,1,4,22,20,5,3,0
1481269130168398,-3,-3,0,-6,-4,-3,-2,-3
1481269130169266,2,3,1,11,8,1,0,2
1481269130169266,3,-1,-4,-5,-4,-2,0,-1
1481269130181270,-2,-1,7,-8,-6,-2,0,-2
1481269130181270,1,1,3,5,-2,0,1,-1
1481269130190336,-3,-2,-4,7,0,-2,-2,-2
1481269130190336,-1,-2,-1,0,-2,0,-2,0
1481269130196347,2,0,-3,-3,-4,-1,-3,-1
1481269130196347,-1,0,1,-8,-5,1,0,-2
1481269130205336,-1,-1,2,15,4,-2,-1,-2
1481269130205336,-2,-1,0,0,-3,-1,-1,0
1481269130219339,-2,0,-2,0,1,0,-1,0
1481269130219339,-1,-3,-3,-3,0,-3,-2,-1
1481269130228417,0,1,-5,-12,-5,-1,-1,-3
1481269130228417,0,1,-1,-7,-1,-3,-1,0
1481269130241952,-2,-1,-29,-4,-6,-4,-1,1
1481269130241952,-1,-3,18,7,1,1,0,0
1481269130250946,0,1,13,7,4,1,1,1
1481269130250946,-2,-3,-2,7,0,-2,-1,-1
1481269130257069,-1,-1,3,-12,-4,0,0,0
1481269130257069,1,1,-12,7,2,-2,0,-1
1481269130264952,0,-2,-2,-7,-4,-1,-1,1
1481269130264952,0,-2,2,-2,0,1,0,-1
1481269130279050,-2,0,1,27,0,-1,-1,-1
1481269130279050,0,0,-3,-20,-4,-2,1,1
1481269130287948,-4,-2,-1,19,0,-2,-1,-3
1481269130287948,1,0,2,11,6,3,1,1
1481269130301947,-1,-1,-2,-18,-8,-2,2,0
1481269130301947,-3,-1,5,7,-1,-1,-2,-2
1481269130310951,-4,-3,-11,-17,-5,0,0,0
1481269130310951,-2,0,-3,8,1,1,-3,-3
1481269130316949,-3,-5,3,4,1,-2,-1,-2
1481269130316949,2,0,-2,-11,-8,-3,-2,-2
1481269130325954,-3,-2,-3,1,0,-3,-1,-3
1481269130325954,1,0,-2,2,2,0,1,1
1481269130339497,0,-1,2,-15,-4,0,0,-1
1481269130339497,-2,-3,-4,26,4,0,-2,-3
1481269130347976,3,1,3,-17,-4,-2,0,0
1481269130347976,2,-1,-10,8,2,-1,-1,-1
1481269130362107,0,0,1,-9,1,2,0,0
1481269130362107,2,-2,-4,-4,-2,-1,1,3
1481269130369987,0,-3,-3,-7,-5,-3,-4,-2
1481269130369987,-2,-3,0,-4,-3,1,-1,1
1481269130376062,-2,-2,0,13,6,0,-2,-1
1481269130376062,-2,-2,0,0,-4,1,1,-2
1481269130385057,-4,-5,-3,-6,-1,0,0,-3
1481269130385057,-2,1,3,15,-3,-1,1,-2
1481269130398982,-2,-2,-3,4,-1,-3,-1,1
1481269130398982,-1,0,-2,-4,3,-1,-1,2
1481269130407979,-2,-1,-1,1,-2,0,1,0
1481269130407979,0,-2,-1,-12,-3,0,0,0
1481269130421984,-2,-1,2,3,0,-2,0,-1
1481269130421984,0,-1,0,3,1,-1,-1,-1
1481269130430997,0,-1,-2,-17,-3,0,-2,-2
1481269130430997,-2,-2,0,11,4,-2,-2,-3
1481269130436996,0,-2,1,3,-3,-1,0,-3
1481269130436996,-1,0,-3,-10,-11,-1,-1,0
1481269130445574,-1,0,0,5,16,2,0,2
1481269130445574,-1,-3,-2,-26,-6,-3,-1,-1
1481269130458675,3,1,10,50,10,5,1,2
1481269130458675,0,-2,1,1,2,-1,-2,-1
1481269130467709,0,-2,-1,6,-3,-1,-1,0
1481269130467709,1,-1,-3,-5,-1,-1,-1,-3
1481269130481583,0,-2,-4,-14,-6,-3,-1,-1
1481269130481583,-3,-1,1,-5,1,-1,2,-3
1481269130490577,0,2,1,7,1,3,0,1
1481269130490577,-1,-2,-1,-7,-1,-1,1,-2
1481269130496659,0,-1,-3,-5,-5,-1,-3,0
1481269130496659,1,-2,-1,4,5,-3,-2,1
1481269130505582,-1,-2,-1,-4,-5,-2,-4,-1
1481269130505582,0,-1,4,-4,-3,-2,-1,0
1481269130518626,-1,-1,-2,6,5,-2,-1,-2
1481269130518626,-1,0,-2,-18,-4,-1,2,1
1481269130528691,3,1,4,4,7,1,3,3
1481269130528691,2,2,-1,1,-3,-2,0,1
1481269130541627,-4,-3,-1,-7,-3,0,-2,-2
1481269130541627,-2,-2,-2,-14,-5,1,-2,-3
1481269130550693,0,0,2,13,0,-2,0,-1
1481269130550693,-1,0,-2,-10,3,3,1,0
1481269130556779,-1,-1,-1,-9,-1,-2,-1,0
1481269130556779,-1,0,-4,13,1,-1,-1,1
1481269130565692,0,0,-3,-6,-6,-5,-4,1
1481269130565692,-1,2,12,6,4,1,0,2
1481269130578771,-3,1,-2,-1,-4,-2,-2,-1
1481269130578771,0,0,-2,-8,-14,-6,0,-4
1481269130587794,-3,-2,3,11,17,2,1,-2
1481269130587794,-2,-5,-12,-8,-3,-4,-2,-4
1481269130601696,1,0,1,-16,-8,0,-1,-2
1481269130601696,1,0,5,16,7,2,0,0
1481269130610693,-1,-3,1,-13,-14,-3,-1,-3
1481269130610693,3,2,2,19,6,0,1,0
1481269130616697,-3,-2,0,1,3,0,-1,-3
1481269130616697,0,-1,-3,2,-3,0,-3,-1
1481269130625698,-2,-2,-4,-3,-4,1,0,-3
1481269130625698,-3,-1,-4,-11,-1,-1,-1,-3
1481269130639211,2,2,1,12,-1,2,1,1
1481269130639211,0,2,0,-3,6,0,0,3
1481269130647926,-1,-2,-3,-6,-9,-2,-3,0
1481269130647926,0,0,1,7,4,2,0,-1
1481269130662015,-1,-1,1,-13,-1,-2,1,0
1481269130662015,0,0,-2,0,3,-1,-1,-2
1481269130670013,0,-1,-4,-5,-4,0,1,-1
1481269130670013,-3,0,4,-6,-6,0,0,-2
1481269130677014,2,-2,-2,-1,-3,0,-1,-1
1481269130677014,2,0,1,-1,-1,-1,-1,0
1481269130685920,-5,0,-1,-2,-6,-4,-3,-3
1481269130685920,-1,-4,-7,-15,-4,-3,-2,-2
1481269130698950,0,1,5,10,0,1,0,0
1481269130698950,0,-1,-1,15,1,-1,-2,-2
1481269130707956,2,-1,-2,-18,-6,-2,-1,1
1481269130707956,-6,-3,5,12,3,1,0,-3
1481269130722016,1,3,-1,-14,-2,-1,0,0
1481269130722016,-1,-3,4,-8,-2,-1,-1,-1
1481269130730962,-2,-3,-6,-9,-4,-3,-2,-2
1481269130730962,1,-2,-4,4,-4,-3,0,-1
1481269130736962,-1,-3,-3,9,0,-3,-1,-1
1481269130736962,-5,-2,3,0,-4,0,-1,-3
1481269130745470,1,0,4,6,6,1,-1,2
1481269130745470,-1,-2,-6,-2,-3,-3,-1,-2
1481269130759511,-1,0,-2,-4,-1,-1,-1,0
1481269130759511,-2,1,0,-7,-1,-1,-1,-3
1481269130768535,2,1,-2,1,-2,1,2,0
1481269130768535,-1,0,0,2,-1,-1,-2,-1
1481269130781476,7,1,-9,-15,-3,-3,0,3
1481269130781476,-4,-5,-4,0,1,2,2,-1
1481269130790477,-2,-1,0,-3,-2,-1,0,-1
1481269130790477,1,2,5,10,4,3,0,4
1481269130805473,-1,-2,-2,2,0,-2,-1,-1
1481269130805473,-1,-3,-7,-22,-6,-3,0,-1
1481269130806540,0,-1,8,55,15,2,4,0
1481269130806540,0,-1,-3,-7,-3,-3,-1,0
1481269130819481,-5,-1,0,5,1,-1,-2,-3
1481269130819481,-1,0,-5,5,-3,-1,-2,0
1481269130828061,-3,-2,-4,5,-2,-2,-4,-2
1481269130828061,2,0,6,-32,0,2,2,-1
1481269130841557,-1,-3,1,10,-4,0,0,-2
1481269130841557,0,-1,-1,-9,2,-1,0,-1
1481269130850567,1,0,-2,-5,-2,-3,0,-2
1481269130850567,-2,1,-2,12,1,-2,-5,-2
1481269130865569,-2,-1,-1,-13,-3,-2,0,-3
1481269130865569,2,1,0,-5,-7,0,-1,-1
1481269130866589,-1,-1,0,2,1,0,-1,0
1481269130866589,-3,-3,-2,10,0,1,-1,-1
1481269130879573,-3,-4,-1,-3,0,1,-1,-2
1481269130879573,0,-1,-1,-6,3,-1,-1,0
1481269130887699,0,0,-1,13,6,2,-2,1
1481269130887699,-4,-4,0,-3,3,-2,-2,-3
1481269130901573,-2,1,1,-14,-9,0,-1,-1
1481269130901573,-2,1,1,6,3,-1,-1,1
1481269130910575,-1,-2,-2,-20,-3,-1,1,0
1481269130910575,1,1,-3,-4,-5,-2,0,0
1481269130925640,-5,-4,-3,2,-1,0,0,-2
1481269130925640,4,2,4,-1,4,1,1,2
1481269130927121,-2,-1,-2,-9,-8,0,-1,-1
1481269130927121,-3,-1,-1,-22,3,-1,1,-2
1481269130939121,0,2,0,40,11,2,1,-1
1481269130939121,-1,-1,-2,5,-2,-2,0,-1
1481269130948392,-1,0,-2,-15,-3,0,-3,-1
1481269130948392,0,-1,-4,-10,-8,-1,-3,-2
1481269130961367,-2,-1,-3,-12,-4,-1,-3,0
1481269130961367,0,-2,4,8,10,2,-1,-1
1481269130970369,1,-1,0,-3,-2,0,-2,0
1481269130970369,-2,-1,-2,6,-4,-4,-3,-2
1481269130985373,2,-1,6,-15,1,2,0,0
1481269130985373,-1,-2,-6,9,-1,-2,-1,1
1481269130986369,0,0,4,-7,-1,-2,1,-2
1481269130986369,-3,0,1,5,-5,0,-1,-1
1481269130999404,-1,2,0,-4,-8,-4,-2,-1
1481269130999404,-2,0,4,23,18,1,0,-3
1481269131008434,1,-1,-1,-26,-14,0,0,-1
1481269131008434,0,-2,0,10,-1,0,1,0
1481269131021370,0,0,-2,-3,2,-2,-2,-1
1481269131021370,-4,-3,-3,-6,-5,-2,-2,-1
1481269131030954,1,1,-4,8,3,-2,-1,0
1481269131030954,1,-1,-4,2,0,0,1,-1
1481269131045590,-2,-3,-4,-22,-8,-3,-1,-1
1481269131045590,-1,0,4,-7,-5,0,-2,1
1481269131046556,-4,-5,-1,3,1,-1,-2,-1
1481269131046556,0,-2,-2,-6,1,-3,0,0
1481269131059525,2,-1,-2,6,-4,-3,0,-3
1481269131059525,-1,1,-2,-6,2,0,-1,-2
1481269131067586,0,1,3,2,2,0,0,-1
1481269131067586,-3,-4,-3,6,-2,-2,-4,-2
1481269131081528,-2,-2,-4,1,0,-4,0,-1
1481269131081528,-3,-2,-2,-12,-2,-2,-2,-1
1481269131090524,0,-1,2,-8,0,0,0,1
1481269131090524,2,3,2,22,7,1,1,2
1481269131105525,0,0,1,6,1,0,-1,0
1481269131105525,-1,0,-2,-1,-4,-1,-1,0
1481269131107526,-4,-4,-6,-6,3,-1,-3,-3
1481269131107526,-2,-1,0,-9,-4,-2,-2,0
1481269131118526,-1,0,0,6,4,1,1,0
1481269131118526,0,-1,-1,4,-4,-1,-1,0
1481269131128179,-2,-1,-1,2,-1,1,-2,1
1481269131128179,1,-1,1,-7,-6,-1,1,1
1481269131141679,-1,0,0,11,7,0,-2,-1
1481269131141679,-4,-3,1,-14,-2,0,-1,-2
1481269131150227,0,0,2,25,5,0,1,-3
1481269131150227,-2,0,-2,-3,-2,1,0,-1
1481269131165185,-4,-5,-2,-5,-2,-1,0,-3
1481269131165185,1,-2,-2,-18,-11,-4,-1,-2
1481269131167185,2,-1,-2,-11,-4,-3,1,-2
1481269131167185,0,-2,0,25,4,-2,-2,-2
1481269131179252,2,2,3,1,4,5,1,3
1481269131179252,-1,-3,-5,-1,-1,-1,-1,1
1481269131188185,-3,0,-4,-11,-9,-4,-3,-3
1481269131188185,1,-1,-1,3,16,2,1,1
1481269131201186,1,-3,-4,-6,-1,-1,-2,-2
1481269131201186,0,1,0,9,-3,3,-1,0
1481269131210191,-1,0,-1,-8,-1,-1,1,-1
1481269131210191,1,0,-1,-3,-6,0,-1,0
1481269131225187,1,1,-5,-24,-3,-2,1,0
1481269131225187,0,2,2,40,7,-1,0,-3
1481269131227191,-2,-2,-2,0,-2,-2,0,-1
1481269131227191,2,0,-2,-6,-2,-2,1,1
1481269131239208,-1,-2,-1,-1,0,-1,0,-2
1481269131239208,-2,-2,-3,-6,-4,-2,-1,-1
1481269131248214,-2,-1,1,11,3,0,0,1
1481269131248214,0,0,-2,0,-1,-2,-3,-2
1481269131261283,-2,1,1,-6,2,1,-2,1
1481269131261283,0,-3,-3,-4,-5,-1,-1,1
1481269131276219,0,-2,-2,0,6,1,-1,1
1481269131276219,-2,-2,0,12,9,1,-3,-2
1481269131285215,1,-3,-1,4,-3,-1,0,-2
1481269131285215,1,1,-1,8,5,-1,1,2
1481269131287221,-2,-4,-2,-19,-5,-2,-3,-2
1481269131287221,-3,-2,2,6,-7,-2,0,-2
1481269131299222,-2,-2,-1,-3,7,2,-1,1
1481269131299222,2,-1,-2,-8,-5,-1,0,-1
1481269131308217,1,0,-1,-7,1,0,1,-2
1481269131308217,-2,-1,0,-6,-9,0,2,-2
1481269131321221,-2,0,2,5,-1,0,-1,-3
1481269131321221,-1,-2,-5,-3,-2,-2,-2,-3
1481269131331281,2,0,4,14,10,2,0,0
1481269131331281,0,-2,3,-6,0,-1,-1,-1
1481269131345930,2,-1,1,8,-1,-1,-2,-1
1481269131345930,0,-4,-3,-6,-4,-4,-2,-3
1481269131346802,-2,-1,-4,-8,-7,1,-3,-1
1481269131346802,-2,-1,-4,-13,-5,0,-1,-1
1481269131358828,0,-2,-1,12,5,0,-1,0
1481269131358828,-1,0,0,-3,3,-1,0,0
1481269131367867,0,-1,1,11,0,0,1,0
1481269131367867,0,1,-1,-3,-3,-2,2,0
1481269131381801,-2,-1,-4,-13,-9,-3,1,-1
1481269131381801,-3,-1,2,4,-2,1,1,-2
1481269131390801,-1,-3,-2,-6,-3,-1,-1,0
1481269131390801,2,1,2,2,2,-1,-2,4
1481269131405860,-1,0,-3,-1,-2,-4,-1,-2
1481269131405860,-1,-2,-1,7,3,-2,-1,-2
1481269131406862,1,-1,-3,-1,-5,-1,-1,-2
1481269131406862,0,-5,-2,-24,-7,-1,-1,-1
1481269131426883,-2,1,1,6,0,0,-2,1
1481269131426883,0,0,-3,2,-4,-1,-2,-1
1481269131435818,0,-3,0,7,10,3,2,0
1481269131435818,-2,0,-1,-16,-6,-2,0,-2
1481269131441886,0,-3,-2,5,0,-3,-1,-2
1481269131441886,-1,3,-1,-23,-7,-2,-1,-1
1481269131450289,-2,-2,-4,1,-5,-5,-2,1
1481269131450289,-3,0,1,2,5,2,-2,-1
1481269131465293,3,1,9,15,9,3,2,1
1481269131465293,-2,-3,0,4,1,1,-1,-1
1481269131467290,-3,-1,1,-3,-7,-3,0,-2
1481269131467290,0,-1,-3,-8,1,0,0,-1
1481269131479381,-1,-3,-5,-17,-6,-2,-2,1
1481269131479381,0,-1,3,14,7,1,1,1
1481269131488293,-1,2,0,2,-1,1,2,1
1481269131488293,-1,-2,-2,-2,-7,-2,-3,-1
1481269131501296,-3,0,-3,-1,-3,-2,-2,-3
1481269131501296,-1,-2,-4,-6,-1,-1,-1,-3
1481269131510364,0,-1,4,-1,-3,1,1,-1
1481269131510364,-2,-1,-2,24,8,0,-2,-3
1481269131525374,1,2,3,-11,-4,2,1,-1
1481269131525374,-1,0,1,-12,-1,-1,-1,-1
1481269131527300,1,0,3,16,4,2,-1,0
1481269131527300,2,1,2,-4,9,2,3,-1
1481269131539357,-1,-4,-3,0,-5,-5,-2,-3
1481269131539357,-1,-2,-3,-4,0,-2,-1,-1
1481269131555949,2,-3,-1,-7,-9,-1,0,1
1481269131555949,-1,-2,1,-1,-3,-1,-2,3
1481269131561950,-4,0,-1,2,-1,1,0,-1
1481269131561950,-1,-1,-2,-7,-6,-1,-1,0
1481269131569952,0,3,-1,17,3,-3,-2,-2
1481269131569952,-1,0,0,5,-6,0,-1,-2
1481269131585015,-5,-2,-1,-10,-3,-1,-2,-2
1481269131585015,-1,-1,1,8,1,0,-1,-1
1481269131591929,-1,-2,-3,-1,0,0,-1,-1
1481269131591929,0,1,-1,-15,-1,-3,-1,1
1481269131598946,3,0,2,27,12,0,1,2
1481269131598946,2,-1,3,1,-2,0,0,1
1481269131607956,-1,-2,-6,-8,-5,-1,0,-2
1481269131607956,-1,-1,1,-2,-3,-2,1,-2
1481269131621949,-2,-4,-4,-8,-5,-2,1,-5
1481269131621949,0,-2,1,-3,4,1,1,0
1481269131630453,1,-1,-2,-3,-2,-2,-2,-2
1481269131630453,0,-3,-1,3,-7,-1,-2,-1
1481269131644468,-1,-1,0,-5,3,1,-2,0
1481269131644468,-4,-3,0,10,4,1,-1,1
1481269131651468,-4,0,0,-6,-1,-2,-2,0
1481269131651468,-3,-2,-5,-3,-4,-3,-1,0
1481269131658468,3,1,5,4,0,2,2,2
1481269131658468,-3,-2,-1,-1,4,0,2,-2
1481269131668466,0,-1,-4,-17,-3,-2,-1,0
1481269131668466,-2,-1,5,36,10,0,-1,-2
1481269131681534,2,-3,-7,-17,-10,-4,-1,-1
1481269131681534,0,2,1,5,1,0,0,-4
1481269131690471,-1,-2,0,-1,0,-1,-1,-1
1481269131690471,-1,-3,-3,-11,-4,0,1,-2
1481269131704549,3,0,-1,-2,2,1,-3,3
1481269131704549,3,0,-2,-6,-6,-3,-1,1
1481269131711536,-1,0,-1,-9,-3,-2,-3,-2
1481269131711536,1,2,-2,-2,5,-1,1,0
1481269131727982,-4,-2,-1,-1,-2,-2,-2,-1
1481269131727982,-2,-1,-2,-13,-10,-2,-1,1
1481269131729484,0,0,3,24,11,4,-1,0
1481269131729484,-2,-1,-2,0,-1,-1,-2,0
1481269131741985,-1,3,2,20,5,1,0,1
1481269131741985,0,-1,0,-19,-7,-1,0,0
1481269131750346,-2,-2,-2,-4,-3,-1,-2,-1
1481269131750346,-1,-2,-2,-3,-2,-2,-1,-4
1481269131765406,-3,-3,2,1,7,0,0,-3
1481269131765406,0,0,-1,15,-1,-2,1,-1
1481269131771345,0,-3,0,-25,2,1,2,1
1481269131771345,-1,1,0,9,-4,-1,0,0
1481269131788353,-1,-1,-3,-3,-4,-4,-2,-1
1481269131788353,1,1,1,2,-2,-2,-2,0
1481269131789344,-1,0,-2,-3,-3,-2,-1,-1
1481269131789344,0,-1,-2,-7,0,-1,7,-2
1481269131801425,-3,1,-3,-19,-9,-3,3,-1
1481269131801425,-1,-1,0,41,11,1,2,0
1481269131810349,3,1,1,15,1,-3,-1,-2
1481269131810349,0,-2,-4,-6,-3,-1,-5,0
1481269131824348,-1,-1,0,-5,-3,1,-5,-2
1481269131824348,-3,-3,-7,-16,-7,-2,-4,-2
1481269131832946,-1,-2,-2,-12,1,0,-2,0
1481269131832946,0,-1,3,23,8,1,-2,2
1481269131848110,0,0,-3,-8,-5,-2,-2,1
1481269131848110,0,-1,-1,-9,0,0,-3,0
1481269131849168,-1,0,-2,-3,0,-2,2,0
1481269131849168,-4,-1,2,12,-3,-3,-2,-2
1481269131861105,-2,-2,-5,-12,0,-2,-2,-2
1481269131861105,0,-2,0,-4,-5,0,-2,-1
1481269131876109,0,1,-1,19,5,0,1,-2
1481269131876109,1,-1,-2,-22,-4,-1,-2,1
1481269131885171,-2,1,5,33,3,0,-1,-1
1481269131885171,0,-2,-2,-22,-14,-5,-3,-1
1481269131892170,-5,-5,-2,-3,3,0,0,-1
1481269131892170,1,1,1,1,-4,1,-1,0
1481269131908103,0,-3,-2,0,-2,0,-2,-3
1481269131908103,-2,-3,-5,-8,6,-1,-1,-2
1481269131909168,-3,1,3,0,-6,-1,0,0
1481269131909168,-1,-3,0,10,4,2,3,1
1481269131921107,-4,-3,-2,-4,7,1,1,2
1481269131921107,-2,-1,-2,7,1,0,-2,-1
1481269131930697,-1,-2,-1,-9,2,-1,-1,0
1481269131930697,-1,1,0,4,-3,-1,-2,-2
1481269131953305,2,0,-1,-4,-6,-1,3,-1
1481269131953305,-1,-1,0,1,2,-2,1,0
1481269131954304,-3,-1,-4,4,-3,-1,-1,-2
1481269131954304,0,0,-1,-14,-1,-1,-1,0
1481269131968296,0,-1,-1,-6,-5,-2,-1,-2
1481269131968296,1,0,0,-7,1,0,0,0
1481269131969237,-3,-3,2,-17,-6,0,-2,-2
1481269131969237,0,-2,-3,12,6,-2,-1,-3
1481269131981245,-2,-3,0,5,2,0,-2,0
1481269131981245,1,1,0,2,-5,-1,-1,2
1481269131990340,1,-1,-1,0,6,0,-3,1
1481269131990340,2,0,-2,-13,-7,-1,1,-2
1481269132004316,-2,-2,-2,-9,-3,-2,-1,-3
1481269132004316,-1,-2,3,9,9,4,-1,-2
1481269132011319,0,1,1,23,1,-1,-1,0
1481269132011319,0,-2,-3,-6,0,-2,-2,-1
1481269132028373,2,-1,-3,-10,-3,0,-1,-1
1481269132028373,-2,-2,1,-16,-7,-1,-1,-1
1481269132029951,-1,0,2,-3,-4,-1,0,-2
1481269132029951,-2,-1,0,-3,-2,-1,0,-2
1481269132041948,-4,-3,-1,-1,0,-1,1,-2
1481269132041948,-2,0,-1,-3,-1,0,1,-2
1481269132050485,0,0,-4,-11,-4,-2,-1,0
1481269132050485,-1,-2,0,21,14,3,0,1
1481269132064489,-1,3,2,-23,-6,-2,0,1
1481269132064489,-1,1,0,4,2,0,-4,1
1481269132078483,0,0,-3,1,-3,0,-4,0
1481269132078483,-6,-4,-5,-24,-12,-3,-3,-4
1481269132087482,1,1,0,20,-3,-3,-2,0
1481269132087482,-2,-4,-4,-3,9,1,1,-1
1481269132089483,3,1,6,25,6,1,2,1
1481269132089483,2,-4,-1,-11,-5,-3,-1,-2
1481269132110584,1,0,2,11,6,1,-2,1
1481269132110584,-1,-4,-5,-4,-6,-2,2,1
1481269132111488,-2,-1,1,-9,-9,0,2,1
1481269132111488,-1,-1,0,7,13,2,-1,-1
1481269132124578,-1,-1,-2,-12,-7,-1,-4,-2
1481269132124578,-1,1,-1,-3,-5,-1,-3,-4
1481269132131581,0,0,0,8,2,0,-2,-1
1481269132131581,1,0,0,-10,-4,0,0,0
1481269132147705,-1,0,3,20,2,2,1,0
1481269132147705,-1,1,-1,-5,-2,-2,-2,-1
1481269132149698,-3,-2,-4,-1,-2,-3,-1,-1
1481269132149698,-3,-1,0,-8,-8,-3,0,-4
1481269132161779,1,-2,-3,-9,-3,0,2,-2
1481269132161779,-2,0,2,3,3,0,1,-2
1481269132170702,1,1,-3,-4,-1,-2,-3,0
1481269132170702,-1,1,-1,-3,-6,-1,-2,1
1481269132183706,-1,-1,1,-3,7,1,0,1
1481269132183706,-3,-4,-1,7,-2,-1,0,-2
1481269132192806,-1,-2,-4,-22,4,0,0,-3
1481269132192806,-1,-1,-1,1,-2,-1,-2,-1
1481269132207773,0,-2,1,-5,-5,-2,0,-2
1481269132207773,3,1,-2,1,1,0,-2,-1
1481269132209704,-5,-5,-1,0,-3,-2,1,-3
1481269132209704,-1,1,1,-12,-1,0,0,0
1481269132221793,-2,-1,-3,11,4,-2,-1,-1
1481269132221793,-2,-3,-2,12,5,-1,0,-1
1481269132230820,-4,-4,-4,-19,-14,-2,-3,-4
1481269132230820,2,1,5,28,16,3,2,3
1481269132253337,-1,-3,-4,-9,-9,-4,-2,-1
1481269132253337,-1,1,1,16,7,0,-1,-1
1481269132254334,4,0,2,-9,0,3,0,0
1481269132254334,1,-3,-3,-1,-6,-2,1,-1
1481269132267416,-1,-1,0,7,-2,0,-1,-1
1481269132267416,1,1,1,1,-4,-3,1,2
1481269132269336,-1,0,1,3,3,0,0,-1
1481269132269336,-1,-1,-2,-9,-4,-2,-1,-2
1481269132281350,0,-2,-2,2,0,-2,-3,-1
1481269132281350,-1,0,-2,-14,-4,-2,-2,-3
1481269132290403,0,-2,-4,-4,-5,-4,-2,-1
1481269132290403,-2,-3,0,10,1,0,-1,-2
1481269132304438,-3,-3,-3,4,10,1,-1,-1
1481269132304438,-1,1,3,-1,-2,2,1,1
1481269132313341,3,2,0,14,1,0,0,3
1481269132313341,-1,-1,-6,-11,-7,-2,-1,3
1481269132328467,-1,-2,-3,4,0,-2,0,0
1481269132328467,-1,-6,-1,-11,-2,0,-1,0
1481269132329481,-5,-3,-3,1,0,-2,0,-2
1481269132329481,-1,-1,-1,2,-3,0,2,-1
1481269132341985,-2,-1,1,-10,-5,-2,-2,-3
1481269132341985,2,1,3,-4,6,3,1,-1
1481269132350497,-1,-1,1,0,-2,-2,-3,-1
1481269132350497,-2,-2,-1,-3,-1,-1,-1,0
1481269132364524,-1,-1,-1,-3,-1,-1,-2,2
1481269132364524,-1,1,-1,-6,-8,-2,-2,-3
1481269132373568,0,-2,-2,14,3,-2,-2,-1
1481269132373568,0,2,1,-11,-4,0,0,-2
1481269132387500,2,1,0,9,3,-1,0,0
1481269132387500,-1,-3,-1,-11,-3,-1,-1,-3
1481269132389494,0,-2,-5,1,-2,0,2,-2
1481269132389494,1,-1,0,-10,-3,-2,-1,-2
1481269132401572,0,-1,1,-17,-8,2,0,-1
1481269132401572,-1,-2,-3,-6,-5,-2,-3,1
1481269132410494,-1,-2,3,8,2,-3,-1,1
1481269132410494,0,-3,-3,-7,0,-2,1,0
1481269132424609,-1,1,0,13,3,0,-1,0
1481269132424609,2,0,1,14,3,0,-1,1
1481269132433090,-2,-2,3,-12,-1,0,-2,-2
1481269132433090,1,-1,-4,-1,-2,-3,-3,-1
1481269132448138,0,-1,-1,0,-4,-1,-1,-1
1481269132448138,-1,2,-4,1,6,0,1,0
1481269132449203,0,1,-1,-4,-4,0,1,-2
1481269132449203,2,0,7,23,16,4,1,0
1481269132461228,1,-2,2,7,2,0,1,-2
1481269132461228,0,-2,-2,-17,-3,-2,0,-3
1481269132470184,2,0,3,-13,-4,-2,-1,2
1481269132470184,-2,-2,-2,-5,-2,-2,0,-2
1481269132484138,-1,-1,-3,-7,-2,-4,-1,-1
1481269132484138,-2,-1,1,22,2,0,-1,-1
1481269132493139,0,-1,-1,1,2,-2,0,-3
1481269132493139,-2,1,0,-3,-4,0,-3,-1
1481269132507219,1,0,-1,-6,-1,0,-3,0
1481269132507219,-4,-5,-2,-4,-2,0,-1,-2
1481269132514146,2,0,-3,-3,-1,0,-1,1
1481269132514146,0,-1,-1,9,-1,0,-1,1
1481269132521220,0,-1,0,-2,-4,-1,-1,-1
1481269132521220,1,-1,0,-1,0,-3,0,1
1481269132531268,-2,1,1,2,-2,-2,-1,-1
1481269132531268,-3,-5,-4,-24,-9,-5,0,-3
1481269132544238,1,3,3,35,11,4,1,-2
1481269132544238,-1,-1,-4,-6,-11,-3,-2,-1
1481269132553297,1,2,5,37,22,6,1,-1
1481269132553297,-2,-3,-3,-21,-13,-3,-3,-2
1481269132567373,-3,-2,-3,-12,-8,-2,-1,-1
1481269132567373,2,2,3,2,6,1,0,0
1481269132574301,-2,-3,-3,-2,-6,-1,-1,-1
1481269132574301,1,0,1,5,2,-2,-3,-1
1481269132581296,-2,-2,-4,-12,-5,-5,-4,0
1481269132581296,1,-1,0,12,6,-1,0,2
1481269132590364,-2,-1,0,-28,-13,-1,-3,-2
1481269132590364,-2,0,1,11,4,2,-1,-3
1481269132604378,-1,-2,0,-11,-3,-1,0,-2
1481269132604378,-2,0,0,5,2,-3,0,-1
1481269132613302,2,-1,2,-3,2,-1,1,-1
1481269132613302,-2,-1,-4,1,-1,-1,0,-1
1481269132627297,-2,-2,-4,1,-4,-1,0,-2
1481269132627297,0,4,7,-5,12,5,1,-1
1481269132634310,-2,1,0,3,2,2,2,1
1481269132634310,-1,-1,-1,6,0,1,0,1
1481269132641808,-1,-2,-1,-5,0,-1,0,-1
1481269132641808,-1,-1,-4,-7,-12,-4,-1,-1
1481269132650820,-2,-3,-3,1,0,-1,2,0
1481269132650820,0,-1,-3,-5,-1,-2,1,1
1481269132663832,-2,-3,3,-3,1,-1,0,0
1481269132663832,0,-1,-3,2,-3,-1,-1,1
1481269132672891,-2,-3,-5,-4,-2,-2,-3,-2
1481269132672891,1,-1,-3,-11,-4,-2,-2,-2
1481269132686912,1,0,3,7,2,0,-1,-2
1481269132686912,-1,0,0,-4,-5,0,0,1
1481269132693850,-1,-2,-6,-15,-8,-4,-3,-2
1481269132693850,0,0,2,4,10,2,1,2
1481269132710953,1,4,10,24,9,3,2,0
1481269132710953,-2,-2,-3,5,0,-1,-2,-1
1481269132711889,0,-1,-2,-14,-7,-3,-1,-1
1481269132711889,-2,-2,-4,4,-2,-3,-1,-4
1481269132723825,-1,-1,-3,-8,1,-2,-1,-2
1481269132723825,0,0,1,3,-5,0,0,-2
1481269132733346,0,2,0,0,0,0,0,-1
1481269132733346,0,-1,-3,-3,1,-1,0,0
1481269132746932,0,0,-5,0,0,-3,0,-1
1481269132746932,0,-5,-4,0,-6,-3,-2,-2
1481269132753934,-1,-3,1,-1,9,2,-1,1
1481269132753934,-2,-1,3,8,-2,2,1,1
1481269132769862,-2,-3,-1,-10,-4,-3,-2,0
1481269132769862,-2,-3,-1,-8,-4,-2,-1,-1
1481269132771886,0,-1,-1,-12,-7,0,1,-1
1481269132771886,-2,-1,-3,6,-4,-2,0,-2
1481269132784011,-1,2,0,-28,0,-1,-1,-2
1481269132784011,-1,-1,-2,13,7,2,0,-2
1481269132792958,1,-2,0,3,1,-1,-2,0
1481269132792958,1,-1,-1,-3,0,-2,-3,1
1481269132806951,-3,-4,-4,-9,-7,-2,-2,-3
1481269132806951,-1,0,-1,0,-2,-3,-1,0
1481269132813891,-1,-1,-2,10,0,0,2,-1
1481269132813891,-1,-2,-3,-1,-2,-3,-2,1
1481269132830490,0,1,3,3,-1,0,-1,3
1481269132830490,-2,-3,0,1,1,1,-1,-2
1481269132831987,-2,-2,0,6,-3,-1,0,0
1481269132831987,-1,1,2,-1,-1,0,-1,-1
1481269132844494,-1,-3,-5,1,2,0,-2,0
1481269132844494,0,-2,0,-19,-9,0,1,3
1481269132852996,0,2,-2,0,-7,-4,-2,0
1481269132852996,-1,-3,-2,13,9,0,0,1
1481269132867075,-1,-1,-1,-6,-6,0,1,-1
1481269132867075,1,2,4,21,8,2,1,1
1481269132874076,2,-2,-2,-1,-2,-1,-2,-2
1481269132874076,0,0,0,-7,-5,-2,-2,-3
1481269132890079,-1,-1,-5,-14,-6,-2,-3,1
1481269132890079,-1,-2,-4,5,5,-3,-3,-2
1481269132892000,0,-3,1,-5,4,-1,0,2
1481269132892000,0,0,3,3,3,-1,0,0
1481269132904028,0,-2,-4,-7,-3,-1,2,-1
1481269132904028,-1,1,-1,-7,-6,0,-4,-3
1481269132913004,-4,-1,-2,3,0,-1,-2,-2
1481269132913004,0,-3,-1,0,-1,1,2,0
1481269132927106,-4,0,2,2,1,2,1,-1
1481269132927106,-2,-3,-3,-14,-3,-5,0,0
1481269132934018,-2,1,2,8,-2,0,-3,0
1481269132934018,-1,-2,0,-17,-1,1,0,-1
1481269132950843,3,-1,0,5,-2,0,0,-1
1481269132950843,-2,-1,-2,-3,-1,-1,0,-1
1481269132951741,-1,1,2,0,4,-1,0,2
1481269132951741,0,-2,1,0,-2,-3,-3,-1
1481269132963739,2,-1,-1,11,1,0,0,1
1481269132963739,-1,-1,-2,-12,-7,-3,-1,-2
1481269132972845,1,0,-1,-3,2,-2,-1,-3
1481269132972845,-1,0,0,7,1,-1,-1,-2
1481269132986823,0,-1,1,5,-1,-1,-1,0
1481269132986823,0,0,-1,-12,-3,-2,1,-3
1481269132993822,0,-1,-1,-2,-6,1,0,-1
1481269132993822,-1,-1,-1,-12,3,1,-1,-1
1481269133017747,-2,-1,-1,9,3,0,0,0
1481269133017747,0,-1,2,1,-2,2,1,-1
1481269133019745,-1,-2,-3,1,-2,-2,-2,-3
1481269133019745,0,-1,-3,-13,-8,0,-2,-2
1481269133023758,-3,-2,-2,-3,1,-2,0,-1
1481269133023758,0,-1,0,-5,0,-2,-2,2
1481269133033376,-1,1,-1,15,8,-1,-2,-1
1481269133033376,0,0,-1,7,-3,-2,-3,1
1481269133047024,-1,-2,-2,-16,-5,-2,-1,-1
1481269133047024,0,1,0,12,2,-1,-1,0
1481269133053943,-1,-4,-4,-11,-11,-2,-1,-1
1481269133053943,0,3,4,18,15,5,1,2
1481269133070891,0,-1,-1,-4,-4,-1,0,0
1481269133070891,0,-3,-3,-1,0,-2,-3,-3
1481269133071940,-3,-4,-2,-5,0,-1,-1,1
1481269133071940,-2,-1,-3,-7,-10,-3,-1,-2
1481269133084007,0,-3,0,11,4,-2,-3,-2
1481269133084007,-1,-2,-1,-4,-1,2,-2,0
1481269133092941,1,2,5,9,7,3,-1,-1
1481269133092941,-1,-2,-3,3,-5,-1,0,-2
1481269133107026,1,1,-1,-14,2,-1,-2,-1
1481269133107026,-2,-1,-5,1,-2,-2,-1,-1
1481269133113949,0,-1,2,6,4,3,2,0
1481269133113949,0,0,0,-7,-9,-3,-2,-1
1481269133130570,-1,0,-1,5,10,0,0,0
1481269133130570,-1,-2,0,-16,-6,-4,0,-4
1481269133132064,-1,0,-2,-1,0,-1,0,-1
1481269133132064,2,-2,-1,-2,2,0,0,-2
1481269133144068,-3,-4,-1,1,-4,0,-3,-1
1481269133144068,2,2,0,4,2,1,0,1
1481269133152675,0,0,0,-2,-2,-3,-3,0
1481269133152675,0,-3,1,3,-2,-2,0,0
1481269133167707,0,-1,-1,-5,-1,-1,-2,-3
1481269133167707,-2,-2,-3,4,0,-1,0,-1
1481269133181579,-1,-3,-1,-4,1,2,1,-1
1481269133181579,0,-1,-4,9,2,-1,1,1
1481269133190653,0,3,0,-30,-12,-2,0,0
1481269133190653,-1,1,3,13,-5,-1,0,1
1481269133191643,-2,-3,-4,-10,9,-1,-2,-1
1481269133191643,0,-1,5,0,7,3,-1,1
1481269133203577,0,-3,-1,9,-3,0,-1,1
1481269133203577,-3,0,0,7,2,-1,0,-1
1481269133213589,-2,-1,-1,-13,-11,-3,-3,-3
1481269133213589,-1,-2,-1,4,1,-1,-1,-1
1481269133227710,-1,-1,1,-1,-4,-2,-1,0
1481269133227710,-2,-2,-3,-14,-1,-2,-2,2
1481269133234089,1,3,1,19,-3,0,2,-1
1481269133234089,1,0,-2,-8,7,1,0,-2
1481269133250138,-1,-1,2,9,-2,-1,-4,-1
1481269133250138,-1,-3,-1,3,4,-1,-2,-1
1481269133252136,0,0,-1,-6,-4,0,1,0
1481269133252136,-2,-3,0,-6,-4,-3,-2,0
1481269133264144,-1,-1,-1,9,2,0,0,0
1481269133264144,1,-2,-1,-10,-1,2,1,1
1481269133273142,-2,-3,-2,2,-2,-1,-1,-1
1481269133273142,0,0,-4,-8,-9,-2,-1,-2
1481269133287219,0,-1,-3,-21,-4,-3,-1,0
1481269133287219,-3,-3,-2,-4,-4,-1,-1,-2
1481269133294233,0,1,5,12,6,3,2,2
1481269133294233,0,0,-4,6,6,-1,-2,-1
1481269133310218,-1,-1,1,4,-6,0,-1,-2
1481269133310218,0,2,-3,-34,-8,-2,-1,-2
1481269133312140,0,-1,-2,14,-5,-4,-1,-2
1481269133312140,-3,0,1,8,8,0,2,1
1481269133324142,1,-2,0,2,1,0,0,3
1481269133324142,-1,-1,1,6,0,-1,-1,-2
1481269133333156,-2,0,-2,-5,-3,-3,-3,-1
1481269133333156,0,-1,1,-2,-4,-1,0,-1
1481269133347232,-2,1,-3,4,3,0,1,0
1481269133347232,0,0,2,10,1,1,1,1
1481269133354316,0,-3,-3,-19,1,0,-1,0
1481269133354316,-1,-1,1,7,-1,-1,-1,-1
1481269133370227,-1,-2,0,-6,0,-1,0,-1
1481269133370227,0,0,0,11,1,1,-1,-2
1481269133376307,0,-1,-2,-9,-1,-2,-1,-2
1481269133376307,-3,-2,-2,-11,-4,0,-2,-3
1481269133384314,1,-1,-1,17,6,-1,-2,-2
1481269133384314,1,0,2,2,1,1,-1,-2
1481269133393233,-2,-1,-1,19,7,-3,-1,3
1481269133393233,-1,0,0,-9,-12,-2,-1,0
1481269133407257,-5,-3,-4,-4,2,-2,-2,-2
1481269133407257,1,0,3,16,-1,-2,1,-1
1481269133414231,-1,-1,-3,-3,-3,0,0,-3
1481269133414231,0,-1,1,-4,-3,-2,0,0
1481269133430852,-1,1,-1,5,1,-1,1,2
1481269133430852,-2,-3,-4,-6,1,-2,-1,0
1481269133432321,-1,-1,0,-8,-3,1,-1,2
1481269133432321,-2,-1,0,5,1,0,-1,-1
1481269133444322,0,-1,-1,-12,-4,-2,-1,-1
1481269133444322,-1,-1,-1,1,5,1,-1,0
1481269133453467,0,0,-1,-5,-1,-2,0,-3
1481269133453467,-1,-4,-3,-20,-8,-2,-2,-2
1481269133467407,2,2,4,18,8,1,0,-1
1481269133467407,2,-1,-1,-1,0,-2,-1,2
1481269133474472,-1,-2,-3,0,-1,-1,-1,2
1481269133474472,0,-2,-2,-8,0,-3,-1,2
1481269133498407,-1,0,-1,2,-4,-2,1,-1
1481269133498407,-1,-3,1,8,7,1,0,-1
1481269133499406,0,0,4,-5,-2,0,-1,-1
1481269133499406,-3,-3,-2,-10,-8,-2,0,-2
1481269133503409,-2,-2,-3,-4,2,0,0,0
1481269133503409,0,-1,1,-5,-4,-2,-2,1
1481269133513477,-1,-2,-1,-5,3,0,1,-1
1481269133513477,0,0,1,12,1,2,-2,-1
1481269133527524,-2,-2,-1,1,-7,-1,-2,-2
1481269133527524,-3,-2,-4,-1,-5,-2,-1,-2
1481269133533948,-4,-3,-1,-6,1,1,0,-4
1481269133533948,0,0,-3,-2,0,-1,1,-1
1481269133549477,0,0,4,14,4,0,0,0
1481269133549477,-1,-1,-2,-32,-11,-2,-3,-3
1481269133556554,-2,-3,-3,12,-2,-1,-3,1
1481269133556554,-1,2,1,9,9,0,-1,0
1481269133564514,0,-1,-2,-4,-4,-1,0,0
1481269133564514,0,-3,-1,2,0,0,0,0
1481269133573525,-3,-2,-5,-3,-6,-6,0,-4
1481269133573525,-2,1,3,2,-12,-3,1,-1
1481269133587574,1,0,3,23,28,6,3,1
1481269133587574,-1,-2,-4,-4,-3,-3,0,-1
1481269133594548,1,1,4,17,3,1,-2,1
1481269133594548,-1,-4,-5,-8,-4,-2,-3,0
1481269133609482,0,-1,-2,-12,-12,-4,-3,0
1481269133609482,-3,-1,1,9,2,-1,-1,-2
1481269133616546,-2,-2,-1,-6,2,0,-3,-1
1481269133616546,-1,1,-1,-2,3,2,-1,-3
1481269133633003,-3,1,-1,-14,-8,-1,-1,-2
1481269133633003,0,-1,-2,-1,3,0,1,-1
1481269133634504,1,-1,-2,-10,-12,-2,2,-2
1481269133634504,1,0,3,13,11,1,1,1
1481269133647608,0,0,0,-6,-4,0,-1,-2
1481269133647608,-1,1,-3,0,-1,-2,-1,0
1481269133654648,-1,3,2,7,-3,-2,-2,-1
1481269133654648,1,0,-2,-4,6,0,-4,-1
1481269133669546,0,-3,-2,1,-4,-4,-1,-1
1481269133669546,2,1,3,-14,-1,1,1,1
1481269133676624,0,0,2,-4,0,0,0,0
1481269133676624,-1,-2,-3,1,-2,-1,0,-2
1481269133692635,0,0,1,-5,-2,0,0,0
1481269133692635,2,2,-2,14,2,-1,0,-1
1481269133694550,0,-3,-3,-3,4,0,-1,-1
1481269133694550,-1,-2,-2,1,-13,-2,-2,0
1481269133707648,-1,-4,-4,-24,4,-1,-4,-1
1481269133707648,-1,-1,-1,10,-5,-2,-2,-1
1481269133713584,0,0,2,-6,1,1,1,0
1481269133713584,1,1,-1,13,2,-2,1,-1
1481269133729629,-3,-4,-5,-2,-8,-4,1,0
1481269133729629,-3,-1,-2,-16,-5,-2,-4,-1
1481269133736560,1,2,1,16,11,1,-2,0
1481269133736560,-1,-1,0,-8,-4,-1,-1,0
1481269133752731,1,-1,-1,0,-8,0,0,0
1481269133752731,0,-2,-1,-2,2,2,0,0
1481269133754664,1,0,-1,-8,-6,-3,0,-3
1481269133754664,-1,-1,2,2,3,-1,-1,-2
1481269133766669,-1,-3,2,3,3,-1,-1,-2
1481269133766669,-2,-2,-1,6,0,0,-1,-1
1481269133775669,-2,-2,-5,-3,-5,-3,-3,0
1481269133775669,1,1,4,-20,7,2,1,2
1481269133789670,0,2,0,20,0,0,1,0
1481269133789670,-1,-1,0,5,3,0,1,-1
1481269133803670,-3,-4,-1,4,-2,-2,-1,-1
1481269133803670,0,-2,-5,-13,-5,-4,-1,-1
1481269133812670,-1,-2,-1,-4,-2,-1,-3,-1
1481269133812670,0,1,-1,1,-3,-2,-1,0
1481269133814669,1,-1,2,6,4,3,-1,1
1481269133814669,-1,-5,-3,2,0,-2,-2,2
1481269133826672,-1,0,3,-2,-2,0,-2,0
1481269133826672,1,-2,-3,-15,-8,-3,-1,-1
1481269133835682,-1,-1,-1,21,6,2,1,-2
1481269133835682,-1,-1,1,-16,-6,0,0,-2
1481269133849195,-1,1,-3,-12,-5,-2,0,0
1481269133849195,-2,-1,0,5,2,0,-1,-2
1481269133856190,0,1,3,-8,-6,-1,0,-3
1481269133856190,-2,-1,-2,8,4,0,0,-3
1481269133873258,-1,-3,-3,3,4,-2,-2,-4
1481269133873258,-2,-1,0,-4,1,1,-1,0
1481269133874257,-2,-2,-1,-13,0,-2,-2,-1
1481269133874257,-1,-1,1,-8,-4,-2,-2,0
1481269133886199,0,-1,-2,-1,0,-3,0,-1
1481269133886199,-2,-2,2,9,0,1,-2,-2
1481269133896258,1,-2,-3,-1,2,-2,0,-1
1481269133896258,-1,-1,0,5,2,1,0,-4
1481269133910234,-1,0,-3,1,-4,-1,-1,0
1481269133910234,-2,-3,0,-2,2,-2,1,0
1481269133916198,-2,-2,-4,-9,-7,-3,-2,1
1481269133916198,-2,-2,-3,8,-2,-2,-1,-1
1481269133933216,0,-1,0,4,5,1,-1,0
1481269133933216,0,0,0,13,5,1,-1,-2
1481269133934712,0,-2,-3,-6,0,-2,0,0
1481269133934712,1,1,-1,-5,-7,-2,-1,0
1481269133946229,-1,-1,-1,0,-3,-3,0,-2
1481269133946229,-2,2,0,-1,-5,-3,-1,-1
1481269133955284,0,-4,-4,-10,1,1,-1,-1
1481269133955284,-3,-4,0,4,2,1,-1,-1
1481269133970292,1,0,1,6,-4,1,0,-1
1481269133970292,0,0,0,1,-2,-2,-1,0
1481269133976291,0,-2,1,-8,1,-1,0,0
1481269133976291,-1,1,1,14,5,0,-1,0
1481269133993287,1,-1,-1,-3,0,0,0,2
1481269133993287,0,-4,-5,3,-3,-1,-2,0
1481269133994293,2,3,3,-18,-7,0,2,0
1481269133994293,0,-1,-1,-3,1,-1,0,-2
1481269134006231,-1,-3,-3,-5,0,-1,0,-1
1481269134006231,-1,0,-1,-5,1,0,0,-1
1481269134016226,-1,-2,-4,-2,-5,-1,-3,-2
1481269134016226,0,-1,-5,-6,-2,-3,0,-2
1481269134030227,-1,1,6,4,2,2,0,1
1481269134030227,-1,-1,-2,-8,5,0,1,-2
1481269134036740,-2,-3,-2,-7,1,-1,0,-3
1481269134036740,1,-1,-3,8,-8,-1,-2,-2
1481269134053317,-1,-2,-4,-6,-4,-1,-3,-3
1481269134053317,-1,-1,8,8,14,3,-1,-1
1481269134054249,-3,-1,-2,-3,-4,-2,0,-2
1481269134054249,1,-1,3,-1,0,-1,0,1
1481269134066255,-2,0,-2,0,-4,-2,2,-1
1481269134066255,1,-1,-3,-5,-2,-2,1,1
1481269134075251,1,2,-2,8,-1,-1,-1,0
1481269134075251,-2,-3,-2,-5,1,0,-1,-1
1481269134089251,-3,-1,-2,-9,1,0,-2,1
1481269134089251,-1,-2,-1,11,-4,-1,-1,-1
1481269134096250,-1,1,0,-9,-2,0,-3,0
1481269134096250,-3,-1,3,13,7,2,1,-1
1481269134113319,-1,-3,-2,-6,-2,-1,-1,-2
1481269134113319,0,-2,-4,0,-4,-2,-1,-2
1481269134114290,-2,-3,0,11,0,0,-4,-1
1481269134114290,2,-2,-3,-10,7,3,1,1
1481269134126320,1,-2,-1,1,0,0,-2,-2
1481269134126320,0,-1,-2,-8,-9,-1,0,1
1481269134135769,-1,0,-2,7,4,0,0,-1
1481269134135769,1,0,5,-2,1,3,-1,3
1481269134149282,-2,-1,0,3,-1,-2,-1,-1
1481269134149282,2,0,-3,5,2,-1,-1,-1
1481269134156346,-1,0,-2,-10,-4,-2,-1,-2
1481269134156346,0,-2,-5,-4,-4,-2,-2,-2
1481269134173343,-2,1,3,-3,-3,-3,0,-1
1481269134173343,-1,0,0,1,-2,0,0,-1
1481269134174280,-2,0,0,6,3,2,1,2
1481269134174280,-5,-2,-3,-6,-8,-1,-2,-1
1481269134186310,-2,-1,-4,-5,7,2,-2,-2
1481269134186310,1,-1,0,3,-2,2,-1,-3
1481269134195315,2,-1,0,3,1,0,1,0
1481269134195315,0,-2,0,5,-5,-3,-3,0
1481269134210282,-1,-4,-1,-10,-9,-3,-1,-1
1481269134210282,-2,-1,1,1,8,0,0,1
1481269134216312,-2,-2,1,4,0,0,0,1
1481269134216312,-1,-1,-3,5,-2,-2,-1,-3
1481269134232807,-2,-1,1,-9,-4,0,-1,-2
1481269134232807,1,-1,-2,-10,-2,-1,0,-2
1481269134234806,0,2,5,16,-6,-2,0,-4
1481269134234806,-3,-4,-2,-4,-5,0,0,-3
1481269134246321,-1,0,-1,9,8,2,-2,1
1481269134246321,1,1,2,7,3,2,-1,1
1481269134255316,-2,-1,-4,-23,-1,-3,0,-2
1481269134255316,-1,-1,2,15,-1,-2,0,-3
1481269134269315,0,-1,-2,0,-2,-1,2,-2
1481269134269315,-1,-2,-3,-9,-4,-2,-2,0
1481269134276382,-2,-1,0,3,-2,0,-1,-2
1481269134276382,-2,-1,-1,-1,-1,0,-2,-1
1481269134292386,1,-1,-2,0,-1,-4,-1,1
1481269134292386,-2,1,0,-5,-4,-3,0,1
1481269134294317,-1,-2,-2,-13,-3,-2,-1,0
1481269134294317,1,3,-2,6,2,-1,-1,2
1481269134306320,0,-1,-2,-1,-2,-2,-1,0
1481269134306320,-3,-2,-1,14,0,1,-1,-2
1481269134315317,0,0,-1,-6,0,0,2,-1
1481269134315317,-2,-1,2,-6,-1,0,0,1
1481269134330322,0,0,-1,10,2,-1,-1,-1
1481269134330322,2,-1,0,-9,-5,-1,0,-2
1481269134336833,-3,-2,-2,1,-2,-2,-2,-3
1481269134336833,1,2,0,6,4,-2,-1,0
1481269134353020,-3,-3,-2,-12,-11,-2,0,0
1481269134353020,-2,-1,0,11,11,1,1,0
1481269134354924,0,0,-2,-19,-4,-3,-3,0
1481269134354924,2,-1,-1,-2,2,-1,0,0
1481269134366987,-2,0,3,4,-6,0,-2,-1
1481269134366987,-1,-1,-5,-1,-6,-3,-2,-3
1481269134375923,0,0,2,16,10,1,-1,-1
1481269134375923,0,0,-4,-9,-2,-2,-2,-1
1481269134389948,3,0,-1,-10,0,0,1,-1
1481269134389948,-4,-4,-1,-8,-4,-1,-1,-1
1481269134396953,0,-2,-2,5,-2,-1,1,-2
1481269134396953,-2,-3,-2,-5,-2,0,0,-2
1481269134412032,-1,-1,-1,1,2,-2,-2,-2
1481269134412032,-1,1,-2,-4,-3,-1,-1,0
1481269134419032,2,2,-1,-8,-5,-3,-1,2
1481269134419032,-4,-3,1,2,2,1,-3,-4
1481269134426996,2,1,2,-9,-4,3,1,-1
1481269134426996,3,1,6,22,12,1,1,0
1481269134435965,0,-2,-2,13,4,0,-2,-2
1481269134435965,-1,0,-3,-8,-3,-1,1,0
1481269134450080,-2,-2,-5,2,-2,-5,-2,0
1481269134450080,0,-4,-4,-14,-9,-4,-1,-4
1481269134457090,-1,0,4,8,2,1,0,1
1481269134457090,0,0,2,-2,0,0,0,0
1481269134472016,-1,-1,-2,4,6,0,-1,-1
1481269134472016,0,0,-1,-7,-4,-1,-3,2
1481269134479110,-2,-4,-3,-2,-5,-2,-1,-1
1481269134479110,-2,-1,-3,-4,3,1,0,-2
1481269134486107,1,-1,1,-7,-3,0,1,1
1481269134486107,0,-2,3,4,-1,1,2,-1
1481269134495116,0,0,2,2,9,1,2,-1
1481269134495116,-4,-3,2,-8,-4,-2,-2,-1
1481269134510085,-3,-2,0,5,-2,-4,-3,-3
1481269134510085,-1,0,1,1,3,3,-1,-1
1481269134517039,-1,-3,-2,-1,-2,-1,-1,-4
1481269134517039,3,-1,-2,1,-2,-1,1,0
1481269134532536,-1,1,-1,-10,-1,0,0,-4
1481269134532536,-2,-2,-4,-15,-9,-4,-2,-1
1481269134539595,-3,-2,-1,10,-1,-2,-2,0
1481269134539595,1,1,-1,-11,-5,-2,-1,1
1481269134547121,1,-1,1,26,12,2,0,-1
1481269134547121,-2,-2,0,-7,-3,-3,-1,0
1481269134555196,0,-2,-3,1,-11,-3,-2,-2
1481269134555196,-3,-3,-2,-4,13,1,-1,-1
1481269134569097,-1,-2,0,-8,-2,-1,0,0
1481269134569097,-1,1,-1,-2,0,-1,-1,-3
1481269134576192,-3,-1,1,-3,2,2,1,0
1481269134576192,1,-1,-1,0,-7,-2,0,2
1481269134592099,-2,-3,-3,-2,1,-1,-3,-1
1481269134592099,0,-2,-2,-4,1,-2,0,0
1481269134599096,0,-1,-1,-7,-4,-2,-3,0
1481269134599096,2,1,-1,3,-1,0,-1,1
1481269134615096,1,-1,0,2,1,0,0,1
1481269134615096,-1,-2,-2,-3,-3,-1,-2,-1
1481269134617097,-1,-1,-1,0,1,-1,-2,-1
1481269134617097,-1,-4,-1,0,-3,0,0,-1
1481269134630167,0,2,1,7,0,-4,-1,-1
1481269134630167,-2,-1,-2,-9,-1,-2,0,-3
1481269134636649,0,0,0,-5,-1,1,-1,-1
1481269134636649,0,0,1,1,-4,-1,0,-1
1481269134652308,0,0,0,-8,-5,1,-1,-2
1481269134652308,0,-2,-1,2,2,1,1,0
1481269134659303,1,-1,1,-5,6,2,0,-1
1481269134659303,0,1,2,8,-2,0,0,0
1481269134675243,-4,-3,0,0,-3,-1,-1,0
1481269134675243,-3,-1,1,0,-3,-1,-3,-2
1481269134677221,-2,-1,-3,-7,-3,-2,-2,0
1481269134677221,-4,-3,-4,2,1,-1,-3,-3
1481269134690222,1,-1,-2,2,-1,-1,-1,0
1481269134690222,1,1,-2,-3,0,0,-1,0
1481269134696297,1,-3,-2,-4,-4,-3,-1,-1
1481269134696297,1,-1,-3,7,2,-1,2,-1
1481269134712298,0,-1,3,-22,-2,0,2,0
1481269134712298,1,1,-3,8,2,-1,-1,-1
1481269134719247,0,-1,-1,1,-4,0,0,-1
1481269134719247,-2,-4,0,-1,-1,-1,-1,-2
1481269134735822,-1,-3,-1,8,1,0,-2,-1
1481269134735822,-3,-2,-1,-5,-6,-1,-1,-1
1481269134737230,1,1,-2,-2,2,0,0,0
1481269134737230,1,-1,3,15,4,-1,2,0
1481269134750318,-2,0,-1,-4,-2,-2,0,-2
1481269134750318,0,0,-3,-3,-1,-1,0,0
1481269134756393,-1,-1,-1,2,-2,-3,0,-2
1481269134756393,-1,-1,0,-8,-2,-1,-1,0
1481269134772338,0,-1,-3,-1,-1,1,-1,-1
1481269134772338,1,-1,0,2,1,-2,-1,-1
1481269134779384,2,-1,-2,-7,-4,-1,-2,0
1481269134779384,1,2,0,3,-2,-2,-2,0
1481269134795414,-2,0,1,5,5,1,-1,-2
1481269134795414,-2,-3,0,3,-2,-1,-1,0
1481269134797320,-2,-3,-3,-4,-7,-4,1,0
1481269134797320,-2,-1,-2,4,-2,-3,-2,-2
1481269134809421,-1,-1,-1,-18,-2,0,-1,0
1481269134809421,0,0,2,16,2,-2,-1,0
1481269134816385,0,3,1,13,5,0,0,0
1481269134816385,-3,-2,-3,-4,-3,-5,-3,-1
1481269134832332,0,-3,-3,-4,-5,-3,0,1
1481269134832332,-3,-4,-2,0,2,0,-2,-2
1481269134839335,1,-2,3,2,-4,1,1,-1
1481269134839335,1,1,0,-8,0,1,1,2
1481269134855447,-1,-1,0,0,-2,-1,0,2
1481269134855447,-2,-2,-1,9,9,2,1,0
1481269134857440,-2,-2,0,2,4,0,-2,-1
1481269134857440,-3,-4,1,-10,-4,0,-2,-3
1481269134869469,-1,-1,-1,4,-2,-3,-2,-2
1481269134869469,1,0,-1,3,-2,-2,-2,-1
1481269134884500,-3,-2,-3,-3,2,-1,0,-1
1481269134884500,0,-1,-1,-13,-5,-2,-1,-1
1481269134892455,-3,-2,0,9,2,0,-2,-2
1481269134892455,-3,0,-1,-16,-6,-2,-3,-3
1481269134899436,-1,-1,3,16,9,1,-1,-1
1481269134899436,0,0,1,-6,5,2,1,0
1481269134915374,-1,1,-1,-5,-4,-1,2,-2
1481269134915374,-1,-2,0,-1,2,1,-1,2
1481269134916369,-3,-2,-2,-15,-6,-2,-4,-2
1481269134916369,-2,0,-2,-11,-4,-2,-2,0
1481269134929373,0,-1,0,5,2,-2,-2,1
1481269134929373,1,-1,0,-4,-2,-1,0,1
1481269134936966,-1,-1,-4,0,0,0,0,0
1481269134936966,1,0,-3,6,1,-1,-2,-2
1481269134952502,0,-1,1,1,0,0,0,-1
1481269134952502,-1,-2,0,-6,-2,0,-1,-2
1481269134959486,-2,-4,-3,-15,-6,-3,-2,-1
1481269134959486,-1,1,4,20,-3,-1,-1,-1
1481269134975424,0,0,1,5,8,0,2,1
1481269134975424,-2,-1,-2,-6,-6,-4,-1,0
1481269134976426,1,0,0,9,5,1,1,1
1481269134976426,1,-1,-2,-10,-10,-1,-1,1
1481269134989426,1,-2,-1,-9,-7,-3,-4,0
1481269134989426,0,-3,-4,1,3,0,1,0
1481269134996441,0,1,2,-10,1,2,1,0
1481269134996441,-2,-2,-1,-7,2,-3,-2,0
1481269135012503,-2,-1,-1,7,-2,0,-1,-1
1481269135012503,-2,-1,-1,-7,-4,-2,1,-2
1481269135019515,-1,-2,-4,0,-2,-3,0,-1
1481269135019515,0,-3,-1,-4,-1,0,1,-1
1481269135035441,1,-2,-1,3,1,-1,-1,-3
1481269135035441,4,-1,0,-2,-3,0,-3,0
1481269135037438,-2,-2,1,2,-2,-2,-2,-3
1481269135037438,-1,-2,-3,2,2,3,0,0
1481269135049509,-2,-2,-3,-15,-4,1,-1,0
1481269135049509,0,1,2,-12,-3,-1,-1,-2
1481269135056504,-2,-3,-2,1,-3,-2,-1,0
1481269135056504,-2,0,-1,5,5,0,1,-2
1481269135072549,0,1,-1,-2,-3,-1,-2,1
1481269135072549,-1,-1,0,5,-1,2,0,-2
1481269135079539,1,-1,-2,-12,-5,0,-2,-1
1481269135079539,-1,-2,0,9,2,-2,-1,-3
1481269135095482,-2,-3,-4,-7,-1,-1,-2,-2
1481269135095482,0,0,1,15,3,-1,1,-1
1481269135096484,-1,0,-3,-1,-4,-3,2,1
1481269135096484,-1,1,0,4,-2,1,1,-1
1481269135108600,0,0,-1,-5,2,-1,0,1
1481269135108600,-1,-2,-2,-20,-7,-6,-1,2
1481269135118530,-1,0,2,15,-3,-1,-2,-2
1481269135118530,-1,-1,-1,-1,-2,0,-1,-2
1481269135132503,0,-1,2,-2,3,0,0,-3
1481269135132503,-1,0,-3,6,3,0,-3,0
1481269135139569,-2,0,-3,-2,0,-1,-2,0
1481269135139569,0,-1,0,-12,-3,-2,0,0
1481269135155014,-1,-1,1,7,-2,-2,-1,-3
1481269135155014,-2,-1,-2,2,4,3,2,-1
1481269135157011,1,-2,1,2,6,3,0,1
1481269135157011,0,0,-2,-4,1,-2,-3,0
1481269135169108,-1,-4,-3,3,-1,-1,1,1
1481269135169108,0,-1,0,1,0,-2,-2,-1
1481269135178010,-1,1,-1,-7,-8,-1,-1,-2
1481269135178010,-2,-2,-3,5,9,0,-1,1
1481269135192089,-3,-3,1,-2,-2,-1,0,-2
1481269135192089,0,-2,0,-7,0,-1,-1,-2
1481269135199011,-4,-2,1,6,4,0,-5,-3
1481269135199011,0,0,-3,-7,-11,-2,2,-2
1481269135215019,-2,2,0,5,3,0,-2,1
1481269135215019,0,-1,-1,-2,-3,0,-2,0
1481269135217014,0,0,-1,-5,0,0,1,0
1481269135217014,1,0,-2,-1,-2,-1,-1,2
1481269135229095,-1,0,-1,2,2,0,-1,-1
1481269135229095,-3,-1,1,10,-2,0,1,-4
1481269135238593,2,-1,0,-1,-1,0,0,-4
1481269135238593,0,-2,-1,-8,-3,0,-2,-3
1481269135252750,-1,0,-2,5,-1,-3,-2,-1
1481269135252750,0,1,-1,-15,-7,-1,0,1
1481269135258697,-1,-2,3,-4,12,1,1,1
1481269135258697,-3,-1,2,5,-2,1,0,0
1481269135275700,-2,-2,-2,-2,-5,0,-2,-2
1481269135275700,-6,-5,-2,-4,-5,-2,-1,-4
1481269135276699,2,3,-3,1,-1,-2,0,-1
1481269135276699,-1,0,0,-5,0,1,0,-1
1481269135288697,0,-1,1,0,-1,-1,-2,2
1481269135288697,2,-1,-1,5,1,0,0,0
1481269135297685,0,-1,-1,-2,-2,-4,-1,0
1481269135297685,4,0,-1,-17,-2,-2,-1,-1
1481269135311717,-1,-1,-1,5,-1,0,0,-1
1481269135311717,3,1,-2,0,-1,-1,0,1
1481269135320622,-2,-1,-1,0,-2,-2,-1,-1
1481269135320622,-2,-2,0,5,1,-1,0,-1
1481269135335199,-2,-1,3,-2,0,-1,-1,0
1481269135335199,0,0,1,0,0,-1,-1,2
1481269135342214,1,-2,-2,2,-5,-2,0,-1
1481269135342214,0,-2,0,1,-1,1,0,0
1481269135349143,2,-2,0,18,7,1,-1,0
1481269135349143,-4,-1,2,8,2,-1,-2,-1
1481269135358144,0,0,0,-16,-8,-1,-3,-1
1481269135358144,-1,-1,-1,7,5,0,-1,-1
1481269135372223,1,1,-2,-13,-8,0,-1,1
1481269135372223,2,-1,0,1,0,0,-1,2
1481269135379250,-2,-3,-2,5,-3,-2,-1,-2
1481269135379250,-2,0,-2,2,0,-3,-1,-2
1481269135395276,0,-1,-3,-5,0,-2,-1,-3
1481269135395276,-3,-3,-2,-3,1,1,-1,-2
1481269135401146,-1,0,0,-7,0,1,-1,-2
1481269135401146,-1,-2,-3,0,-2,0,-3,-4
1481269135409223,1,-2,-2,-6,-3,-1,2,-1
1481269135409223,-3,-1,0,-10,-3,-1,0,-1
1481269135418144,1,-3,-1,1,-3,0,1,0
1481269135418144,-4,0,3,10,12,1,-2,-2
1481269135432748,-2,-1,1,-7,-2,1,-4,-1
1481269135432748,0,-2,-2,0,-4,-1,0,-3
1481269135439162,0,1,-2,-4,1,0,0,0
1481269135439162,0,0,-2,-2,-3,-3,1,1
1481269135455048,1,0,-1,-1,1,-2,-2,0
1481269135455048,0,1,-2,2,3,-2,-2,-2
1481269135462031,2,1,-3,0,-1,-1,-2,2
1481269135462031,-8,-4,2,1,-3,-2,-2,-3
1481269135469045,0,0,0,2,4,0,0,1
1481269135469045,-1,-2,2,2,-1,0,-1,-3
1481269135477967,-1,0,-2,0,1,0,2,2
1481269135477967,1,0,-3,-4,-4,-1,-3,0
1481269135492056,1,2,0,-20,2,1,1,2
1481269135492056,0,1,-1,14,1,-2,-1,-1
1481269135498963,-4,-2,0,5,1,0,0,-3
1481269135498963,-2,-3,-2,4,0,-2,0,-3
1481269135514964,-1,0,-1,-9,-10,-2,0,-3
1481269135514964,1,0,-1,-25,-13,-1,-3,1
1481269135522034,-2,-2,-1,22,10,0,-2,-1
1481269135522034,2,-1,0,-18,-4,-1,1,3
1481269135537979,0,-1,-1,10,3,-2,-2,0
1481269135537979,-1,-5,-4,-6,-1,1,-2,0
1481269135539477,-3,0,1,5,-3,0,-2,-1
1481269135539477,-1,0,1,0,-1,0,-1,0
1481269135552527,0,0,-2,7,3,-1,-2,-2
1481269135552527,-2,-2,-1,-3,-3,-3,-1,-1
1481269135559571,0,-1,-4,-11,-7,-3,0,-1
1481269135559571,2,2,-2,-4,-6,-1,2,0
1481269135574519,-3,-1,1,7,4,0,0,-1
1481269135574519,0,0,-2,4,9,0,-2,0
1481269135581442,-1,-2,-1,-5,0,-2,0,-3
1481269135581442,-2,-2,-3,4,-1,-3,-2,0
1481269135598440,-2,-2,-5,-2,-8,0,2,-1
1481269135598440,0,-1,2,-2,-2,0,0,0
1481269135599440,-4,1,2,-1,-1,-2,1,0
1481269135599440,-3,-3,-1,-14,-10,-1,-2,0
1481269135612440,-2,-3,-2,24,6,-2,-3,1
1481269135612440,-2,-2,0,-6,-7,-1,-1,-2
1481269135619505,0,1,1,5,0,-1,0,-2
1481269135619505,-3,-4,-3,9,3,0,0,-2
1481269135634953,0,-1,0,-21,5,2,0,2
1481269135634953,4,1,-2,3,-3,0,0,2
1481269135641954,-4,-4,-1,-3,-4,0,-1,-4
1481269135641954,1,-1,-1,0,1,-1,0,-3
1481269135657468,0,0,-2,-4,-4,-1,-1,-2
1481269135657468,-1,0,-2,-5,-2,1,1,-1
1481269135659464,2,-1,0,-5,0,-1,-1,1
1481269135659464,-1,0,-1,4,3,1,1,-2
1481269135672546,-3,-5,-3,-5,-2,-1,-1,-4
1481269135672546,-1,0,-1,3,1,0,-1,0
1481269135679533,-1,-1,0,0,3,2,-1,2
1481269135679533,-2,-1,1,7,3,-3,-1,2
1481269135694550,-5,1,2,-1,-4,-2,-2,0
1481269135694550,-2,0,0,4,2,1,1,-2
1481269135701546,2,-1,-4,-4,-3,-1,-1,0
1481269135701546,0,1,1,-21,2,1,0,-1
1481269135718546,-2,-2,-1,-2,-5,0,0,-2
1481269135718546,-2,-2,-1,4,5,1,-2,-1
1481269135719470,-1,0,-5,0,0,-2,-1,-1
1481269135719470,3,0,-3,2,-2,-2,-2,4
1481269135732491,-4,-1,-2,0,-4,0,-2,-2
1481269135732491,0,0,-2,0,-2,-2,0,0
1481269135739583,0,-2,-2,-5,-2,0,-2,-3
1481269135739583,-1,-1,-2,4,-3,0,-1,-1
1481269135754496,1,-2,1,-6,0,0,2,-1
1481269135754496,-3,-2,1,4,2,-2,-2,-2
1481269135761497,0,-2,-1,-4,2,0,-2,-1
1481269135761497,-1,-2,0,0,1,0,-1,-2
1481269135777498,1,-1,0,1,-1,2,-2,1
1481269135777498,-2,-2,0,5,2,-2,0,1
1481269135779469,-2,-2,0,-7,-3,-2,1,-2
1481269135779469,-1,0,-2,4,-1,-1,-2,-1
1481269135791422,-1,-1,1,-13,-1,-3,-1,-4
1481269135791422,2,1,-3,11,4,-3,1,-1
1481269135800424,0,-2,2,2,2,2,0,2
1481269135800424,1,2,-1,-6,-6,-1,0,2
1481269135814425,-2,-1,2,11,0,-2,-4,-2
1481269135814425,-2,-2,-2,-6,-6,0,-4,0
1481269135821499,-1,-1,0,2,-1,0,-2,0
1481269135821499,0,-1,-1,5,0,-1,1,-2
1481269135838447,0,-2,-3,-7,-2,-3,1,1
1481269135838447,2,0,-1,2,0,0,-1,1
1481269135839937,-3,0,-1,15,4,0,-1,2
1481269135839937,-1,-1,-2,-1,1,-1,-1,0
1481269135851438,-4,-1,0,4,-2,2,-2,0
1481269135851438,-3,-3,-2,-7,-1,-1,-1,0
1481269135860367,-2,-1,-3,-9,-3,-1,-1,-1
1481269135860367,-1,-1,-1,2,3,-1,0,-1
1481269135874441,0,-2,-2,2,-4,-4,0,-3
1481269135874441,-1,-2,-2,-3,0,0,0,-1
1481269135881366,0,-2,4,-13,-2,2,2,-2
1481269135881366,-3,1,3,4,-2,-2,-1,-4
1481269135898412,0,-1,0,5,0,-2,-1,-1
1481269135898412,1,1,2,-9,-2,1,0,1
1481269135899364,2,2,-4,-6,-4,-3,0,-1
1481269135899364,-2,-3,-1,-6,-1,-1,-2,-2
1481269135911456,-1,-1,-3,-5,-5,-3,-1,0
1481269135911456,-1,-2,-4,4,1,-3,-1,-2
1481269135920363,2,2,3,-7,-2,1,1,2
1481269135920363,-2,0,6,25,2,0,0,2
1481269135934962,-1,0,0,4,4,0,-1,-2
1481269135934962,-2,0,-1,4,-1,-2,-1,-1
1481269135941925,-2,-2,-6,-7,-7,-2,-1,-2
1481269135941925,0,0,-4,1,1,2,1,-1
1481269135957473,3,1,1,-7,-1,-2,1,0
1481269135957473,-2,-2,1,1,1,0,0,-2
1481269135959394,-4,-2,1,3,1,-2,-2,-3
1481269135959394,-2,-3,-1,-6,0,-1,-3,-4
1481269135971473,-1,-3,-1,5,2,1,0,0
1481269135971473,1,-1,1,-3,-1,-1,-3,1
1481269135980394,-3,-2,0,5,2,1,-1,1
1481269135980394,-3,-3,1,-1,1,0,-1,-2
1481269135995400,1,-1,-2,-2,-3,-2,0,0
1481269135995400,0,-1,0,-2,-1,-2,0,-2
1481269136001475,0,0,1,8,6,1,1,-1
1481269136001475,2,-1,-4,-7,-3,-3,-2,1
1481269136018528,1,-1,0,-2,-1,-1,0,1
1481269136018528,-2,-2,3,-1,-2,0,1,-1
1481269136019401,0,1,-2,-4,-1,-1,-2,-1
1481269136019401,1,1,0,2,2,1,1,-2
1481269136031947,0,-1,2,5,1,-1,0,-2
1481269136031947,-1,0,-2,-9,-3,-1,-1,-1
1481269136040950,1,-2,-4,8,-1,0,-4,0
1481269136040950,-3,-4,0,-9,-6,0,0,-3
1481269136054426,-1,0,0,-2,4,3,0,2
1481269136054426,1,1,0,2,-2,0,1,3
1481269136061492,-2,-2,1,2,-1,0,0,-2
1481269136061492,0,-1,-2,-3,0,0,0,1
1481269136077425,-1,-3,-5,2,0,-1,-1,-1
1481269136077425,-3,-1,0,-3,0,0,0,1
1481269136079443,1,0,-1,9,-3,-1,0,0
1481269136079443,0,0,-3,-5,-5,-2,0,0
1481269136091425,0,-1,2,-3,1,1,0,-1
1481269136091425,1,1,-2,1,0,-3,-3,0
1481269136100427,3,1,-3,-15,-5,-2,-1,0
1481269136100427,-1,-1,-3,-6,-3,0,-1,1
1481269136114427,0,1,-2,1,0,0,0,0
1481269136114427,0,-2,-1,4,-2,0,-2,-2
1481269136121453,-2,1,-1,-1,-2,-1,3,0
1481269136121453,-3,1,2,1,-1,0,-2,-4
1481269136137948,-1,1,-3,1,0,-1,-2,-3
1481269136137948,0,-4,-3,-1,2,3,1,-1
1481269136139442,-2,-2,-1,5,-1,-3,-2,0
1481269136139442,1,-1,1,-16,-2,-1,-1,0
1481269136152495,0,-1,1,-4,-2,-2,-2,-3
1481269136152495,-1,-1,1,0,-4,-2,-1,-1
1481269136160457,-1,-2,1,-5,2,-3,-1,-1
1481269136160457,1,-1,-2,7,0,-1,-2,3
1481269136174461,-2,-2,-2,-2,-2,0,-1,-1
1481269136174461,-3,-2,-4,-1,-2,-3,0,-1
1481269136181456,0,0,1,-6,-8,1,0,-1
1481269136181456,-1,0,-1,10,14,1,-2,-1
1481269136197461,-1,0,0,-11,-9,0,0,-1
1481269136197461,-1,-2,-4,10,7,-1,2,-2
1481269136199456,-2,-1,-1,-18,-11,-4,1,-1
1481269136199456,-4,-2,-1,15,-2,1,0,0
1481269136211536,-1,-3,-1,2,1,-1,0,0
1481269136211536,-2,0,1,-8,-4,-2,-3,-1
1481269136221476,-2,0,0,7,4,-3,-1,0
1481269136221476,1,-1,-2,-3,-3,-1,1,1
1481269136234978,0,1,1,4,2,-1,0,0
1481269136234978,1,-2,-1,-4,-5,-1,-2,0
1481269136241979,-1,-1,-2,2,4,1,-3,-2
1481269136241979,-2,0,4,2,1,0,0,-1
1481269136257609,-2,-2,-5,-3,-2,1,-1,1
1481269136257609,1,0,0,-3,-2,-2,-1,-2
1481269136259530,-2,-3,0,1,0,-2,-2,-2
1481269136259530,2,-1,-2,-5,0,0,-1,-1
1481269136272544,3,0,-1,-1,-3,-1,-1,-1
1481269136272544,-1,0,2,1,2,3,0,3
1481269136280579,-1,-1,-3,-4,-5,-3,-3,-2
1481269136280579,-1,-1,0,-2,-2,0,0,-1
1481269136294613,-1,-3,-2,3,1,-3,0,1
1481269136294613,-1,0,-3,-8,-8,-1,1,0
1481269136301611,1,-1,0,6,6,1,1,3
1481269136301611,0,-1,-2,1,-3,-2,0,0
1481269136317635,-2,-2,-1,6,1,0,-1,-1
1481269136317635,-4,-3,0,-12,-4,-1,1,-3
1481269136324665,-1,-3,-2,12,3,1,-1,-2
1481269136324665,0,-1,-1,-17,-2,-3,-2,-1
1481269136332110,-4,0,0,1,-2,-1,-3,1
1481269136332110,0,0,0,3,2,0,-3,0
1481269136341111,1,0,0,3,5,0,-1,-2
1481269136341111,1,1,0,-2,-5,-2,-1,-1
1481269136354332,-1,-1,1,-3,-1,-1,0,-1
1481269136354332,1,-1,0,-8,0,-2,0,-2
1481269136361359,-2,-2,1,7,3,1,0,-1
1481269136361359,-3,0,-3,-15,-4,2,1,-1
1481269136377333,-2,-1,2,2,1,-1,-1,-1
1481269136377333,0,-1,0,14,4,1,2,0
1481269136384368,1,-1,1,-14,-3,1,0,1
1481269136384368,-1,-3,-2,3,-2,-2,0,-1
1481269136391350,0,-1,0,-1,2,-1,0,-1
1481269136391350,2,2,-1,1,-1,1,-1,0
1481269136400278,-1,0,-4,-6,-3,-2,0,-1
1481269136400278,-1,0,-1,11,-1,0,1,0
1481269136414261,1,0,1,-5,-2,0,1,-2
1481269136414261,-2,-3,-3,-1,-2,-1,-1,0
1481269136421281,-1,-2,0,-15,-1,0,-2,-2
1481269136421281,1,-3,-1,7,3,1,-2,0
1481269136437272,0,0,-1,-2,-2,-1,1,-2
1481269136437272,-1,-1,1,-8,0,0,-1,-1
1481269136444274,-3,-1,-3,-3,-5,-3,0,-1
1481269136444274,-1,-3,-2,-8,-4,-3,-1,-2
1481269136451781,-4,-4,-1,3,2,0,-1,-2
1481269136451781,-2,-3,-1,3,-3,-2,-1,-1
1481269136460782,-5,-4,0,8,4,-1,-3,-4
1481269136460782,-1,-2,-2,-2,1,0,-2,-1
1481269136474846,1,0,-2,-2,-7,-1,0,1
1481269136474846,1,-1,-1,1,0,0,-1,1
1481269136481779,-3,-3,0,4,1,2,-1,-2
1481269136481779,-1,1,2,-3,0,-2,-3,-2
1481269136497785,-2,-2,-2,-5,-2,-2,-2,-2
1481269136497785,0,0,-2,6,-2,-4,0,-2
1481269136503781,-3,-2,1,-10,-6,-2,0,0
1481269136503781,-2,-1,1,13,4,0,0,0
1481269136520846,0,0,-2,-3,0,-1,1,1
1481269136520846,0,-1,-1,-2,0,2,1,1
1481269136521785,0,0,-2,-1,-6,-2,-2,-1
1481269136521785,-1,-2,-1,-7,-2,1,-3,-1
1481269136535297,-4,-2,2,-2,3,-1,-2,-3
1481269136535297,0,0,-3,-2,-1,0,0,-1
1481269136549541,1,2,-1,0,-3,1,3,-2
1481269136549541,-3,0,-1,3,-2,-3,-1,-4
1481269136557489,3,2,-2,2,-4,1,0,2
1481269136557489,-4,-1,2,-2,0,-2,-1,-2
1481269136564473,0,0,-1,1,-1,-2,-1,1
1481269136564473,0,0,0,-1,0,0,0,-1
1481269136580411,3,-1,-2,-4,-4,-2,-2,-1
1481269136580411,-1,0,-1,2,0,-1,-2,-3
1481269136581412,1,2,3,13,3,1,0,-2
1481269136581412,-2,-2,-5,-3,-1,-1,0,-1
1481269136594492,-2,-3,-3,-2,2,0,-1,-1
1481269136594492,-4,-5,-2,2,0,-2,0,-2
1481269136601503,-1,0,0,-14,-3,-2,-1,-1
1481269136601503,-2,-1,-1,-3,-3,-2,0,2
1481269136617438,0,1,0,-1,0,-1,-2,0
1481269136617438,2,0,-1,-3,0,-1,0,1
1481269136624545,0,-1,-2,5,-1,-1,1,-1
1481269136624545,-2,-2,-1,-7,-1,0,-2,0
1481269136640506,-3,-1,-2,1,2,0,-2,-4
1481269136640506,-3,-1,-1,3,7,0,-3,-2
1481269136642004,2,-1,-1,-2,-1,-1,-1,3
1481269136642004,0,0,-1,4,0,-2,1,0
1481269136654917,0,0,-1,1,-2,-1,1,1
1481269136654917,-2,0,3,1,-1,-1,-3,-4
1481269136661907,1,-1,-4,-4,-4,-1,-2,0
1481269136661907,-2,-1,2,14,8,3,0,-2
1481269136676862,1,0,1,3,0,-3,-2,0
1481269136676862,-2,-1,0,-8,-6,-3,-2,1
1481269136683842,-4,-1,-1,-1,2,0,-1,-2
1481269136683842,-3,0,1,-5,-4,-3,-2,-1
1481269136699863,-5,-2,1,2,2,2,0,-3
1481269136699863,0,0,-2,2,0,1,1,-2
1481269136706920,2,0,-2,-4,-4,1,0,-1
1481269136706920,0,-1,-2,-1,-2,-1,1,0
1481269136714843,2,0,0,-6,0,0,0,1
1481269136714843,-1,-1,-1,-3,-2,-1,1,-1
1481269136721923,-1,0,0,4,0,-2,0,1
1481269136721923,0,-1,-1,-9,-2,-2,-1,-1
1481269136737358,2,-2,-2,0,-1,-2,-2,2
1481269136737358,2,0,-4,-5,-2,0,0,1
1481269136744364,-2,-2,-1,1,0,-1,0,-1
1481269136744364,-6,-1,1,4,0,0,-1,-4
1481269136760373,-2,-2,1,-4,-3,0,-1,-3
1481269136760373,-2,-3,0,-3,-3,0,-1,1
1481269136762369,2,-1,-1,3,7,0,0,-1
1481269136762369,3,-3,-3,-3,2,0,0,0
1481269136774502,-3,-3,-4,-3,-4,-2,2,-1
1481269136774502,-2,-1,4,5,-1,-1,-2,-4
1481269136783371,-2,-2,1,-3,0,-1,-2,-2
1481269136783371,1,1,0,-3,-7,-1,0,-1
1481269136797375,3,2,0,2,4,-1,-1,0
1481269136797375,-1,-1,0,-2,-1,-1,-2,-2
1481269136804443,0,-1,-1,-1,-3,-2,-2,-1
1481269136804443,-2,-3,-2,4,1,0,-2,-2
1481269136819440,-3,-1,-1,-2,2,1,1,-1
1481269136819440,4,2,-1,4,-3,-1,2,2
1481269136828372,-1,-3,-1,-4,0,-1,-1,2
1481269136828372,1,-2,-2,-5,-4,-3,-1,2
1481269136834444,0,-1,0,5,-4,-2,-1,-2
1481269136834444,1,-2,-3,-3,0,0,-1,-1
1481269136843382,-1,-1,-2,0,0,0,0,-2
1481269136843382,1,-1,-2,-1,2,-2,0,1
1481269136857458,-6,-5,-2,-8,-5,-3,-2,-1
1481269136857458,0,1,1,11,13,2,0,0
1481269136864455,1,2,-1,-4,-5,-1,0,-1
1481269136864455,0,-1,-2,-6,-4,-1,2,-3
1481269136880393,2,1,2,2,5,3,0,-1
1481269136880393,-2,-1,0,-9,-6,-1,-2,1
1481269136881392,-1,-1,-2,3,0,-3,0,-1
1481269136881392,0,2,1,-4,-3,-2,-2,0
1481269136894497,-1,-3,0,2,-3,0,-1,-3
1481269136894497,0,-3,-4,-2,-1,-2,-1,-1
1481269136903461,1,0,-1,0,-2,1,0,-2
1481269136903461,1,-3,-2,-3,1,0,-3,0
1481269136917462,0,-1,-2,2,-2,-4,-2,0
1481269136917462,-1,-1,-1,-8,-5,-2,-2,-2
1481269136924457,-5,-2,-1,4,-4,-2,-1,-2
1481269136924457,2,0,-2,-2,4,0,-1,1
1481269136940920,3,1,-4,6,-1,0,0,4
1481269136940920,-1,-4,-3,-6,2,0,1,-2
1481269136942476,-1,0,1,-8,-2,-1,0,1
1481269136942476,0,0,-1,-2,-6,1,1,-3
1481269136954501,0,-1,-3,-7,-3,-2,-3,1
1481269136954501,-1,-2,-2,2,0,-1,-1,-1
1481269136963459,1,1,-1,7,3,0,-2,0
1481269136963459,-1,0,0,-24,-5,-2,0,0
1481269136977467,-1,-2,2,11,2,-1,-3,-1
1481269136977467,0,2,-2,-1,-2,-1,-2,-1
1481269136985422,-2,-3,-2,2,-2,-1,0,0
1481269136985422,-1,0,-1,-1,0,-3,-2,0
1481269137000422,-3,-1,0,-9,-7,-1,0,1
1481269137000422,-1,-1,3,7,4,2,0,-1
1481269137002490,-1,-2,-3,-6,0,1,0,-2
1481269137002490,-2,-3,-1,12,1,0,0,-1
1481269137014488,-3,-2,-2,-3,-2,-2,0,-1
1481269137014488,0,-1,0,0,5,0,1,2
1481269137022453,1,-2,-3,-10,-5,-3,2,-2
1481269137022453,-2,0,-1,5,1,1,-2,-1
1481269137037435,2,-1,-2,-1,-1,0,-1,0
1481269137037435,0,-1,-2,-6,-5,-2,-1,0
1481269137044505,0,-1,1,2,-3,0,-2,-1
1481269137044505,0,0,0,1,-1,-1,0,-1
1481269137060444,-2,0,1,-1,1,0,0,-3
1481269137060444,-2,1,0,-1,-5,1,0,-2
1481269137061445,-5,-2,2,3,2,-2,-2,-1
1481269137061445,-3,-2,0,7,1,0,-2,-1
1481269137074490,0,-2,0,-1,0,-1,-2,-1
1481269137074490,0,0,-1,0,-3,-1,-2,-1
1481269137083481,2,-1,-1,-1,0,0,1,0
1481269137083481,0,-1,-2,-2,-1,-1,1,0
1481269137105451,-2,2,0,0,2,-2,0,2
1481269137105451,-4,-6,0,0,-2,0,-1,0
1481269137106448,-2,3,-2,-1,0,1,-1,-3
1481269137106448,0,0,2,1,-3,1,-2,-2
1481269137120448,0,-2,0,-4,-1,0,1,-1
1481269137120448,0,-2,-3,1,1,-2,0,0
1481269137121450,-2,0,2,8,2,-1,-1,1
1481269137121450,0,1,-5,-9,-3,-1,0,0
1481269137134540,1,1,1,9,-2,3,-1,0
1481269137134540,0,-1,-2,-5,-2,-1,-1,-1
1481269137143586,1,-2,-1,-4,-1,-1,0,0
1481269137143586,-2,-2,0,-1,0,1,0,-2
1481269137157536,-1,-1,-2,-7,-3,-1,0,-3
1481269137157536,-2,-2,1,1,-1,-1,1,-1
1481269137164564,-3,-1,2,2,2,-1,-3,-2
1481269137164564,-1,1,-1,1,-6,0,0,0
1481269137180532,2,0,-3,-4,-2,-2,0,2
1481269137180532,1,3,0,1,-1,0,0,-1
1481269137181533,0,1,-2,-1,-2,-1,-1,0
1481269137181533,2,-1,-1,-10,-4,-1,-2,0
1481269137194537,-4,-2,0,4,0,0,-1,-3
1481269137194537,-3,-2,0,-2,-4,-2,0,-1
1481269137202534,1,-1,1,-1,3,-2,0,0
1481269137202534,1,0,-1,4,0,-3,-1,2
1481269137217539,0,1,-2,-5,0,-2,-1,-1
1481269137217539,0,-1,-1,-5,-6,-1,-3,0
1481269137223601,0,-1,-4,0,-1,0,-1,-2
1481269137223601,-3,-2,-2,2,2,0,-2,-1
1481269137240090,0,-1,-1,-2,-2,-1,1,0
1481269137240090,2,-1,0,-1,1,-1,1,2
1481269137247116,-1,-2,1,-3,-3,-1,-1,-1
1481269137247116,-2,1,-2,0,2,-1,0,-2
1481269137262563,-1,-1,-3,-2,0,0,-1,0
1481269137262563,-4,-4,1,2,1,-1,-2,-2
1481269137264565,1,3,-4,-7,-2,0,2,-1
1481269137264565,-1,-2,3,2,-1,-2,1,-2
1481269137277561,-1,-1,-2,-1,0,0,1,0
1481269137277561,0,-2,0,-1,0,-1,1,-1
1481269137283565,0,-1,-3,0,-3,1,-3,-1
1481269137283565,2,-1,2,6,4,0,-1,2
1481269137299563,0,-1,-1,1,-1,-1,-2,0
1481269137299563,0,0,-3,-15,-5,-3,0,1
1481269137306588,-1,-2,-2,1,-3,-1,1,-1
1481269137306588,-3,-2,0,1,2,0,-1,-1
1481269137314580,-1,0,1,-5,-2,-1,1,2
1481269137314580,-1,0,1,6,-1,-2,-2,-2
1481269137322657,-1,0,0,-2,-3,-1,0,-1
1481269137322657,-1,-2,-2,-4,-2,-2,-2,-1
1481269137337714,1,1,-3,-1,0,-2,-1,-1
1481269137337714,-1,-4,-3,0,-3,-3,-1,-2
1481269137344651,0,0,-2,-2,-1,-1,0,2
1481269137344651,-1,-2,-1,0,-3,-1,0,0
1481269137359683,-1,0,0,-2,-1,-1,-2,-2
1481269137359683,2,-1,-1,0,1,0,-1,1
1481269137366659,-2,-3,1,-2,-1,1,-1,1
1481269137366659,1,0,-1,-1,-1,-2,-1,-2
1481269137373673,-4,-4,-2,-3,-1,0,0,-1
1481269137373673,-1,1,0,-1,2,0,1,-2
1481269137382760,-1,-3,0,8,5,0,2,-1
1481269137382760,-2,-1,0,-2,-3,-1,0,0
1481269137397722,0,-2,0,4,1,0,0,0
1481269137397722,0,0,-1,4,-2,-3,-3,0
1481269137403664,-1,-1,-1,-3,-3,0,-1,-1
1481269137403664,1,-1,-3,-1,0,0,-1,-1
1481269137419663,1,0,1,-3,-2,-2,-1,-1
1481269137419663,-1,2,-2,-3,1,0,0,0
1481269137426737,-2,-2,1,0,-2,-1,-1,-1
1481269137426737,-1,-2,-1,2,1,-1,1,-2
1481269137443388,-1,-1,0,-1,0,-1,-1,-1
1481269137443388,-1,0,-2,1,1,0,0,0
1481269137444828,0,0,2,-1,-1,-2,-3,-1
1481269137444828,0,-1,-1,-2,1,2,-1,-2
1481269137456836,0,-1,-2,-1,-2,0,-1,-2
1481269137456836,-2,-2,-1,0,-1,1,1,-2
1481269137463837,0,-1,0,-2,-3,-2,-1,0
1481269137463837,-1,-1,-1,-3,-5,-1,-2,1
1481269137479843,-2,-2,3,2,3,1,1,0
1481269137479843,-3,-1,-2,2,-2,1,-4,-1
1481269137486837,3,0,-1,-11,-2,-1,-2,2
1481269137486837,1,-1,-2,0,-6,-3,-2,0
1481269137502916,-3,-2,1,1,-2,-1,-2,-4
1481269137502916,-2,-3,-1,3,1,-2,-1,-3
1481269137504881,-2,-2,-5,-2,-1,-2,0,-3
1481269137504881,0,-1,1,-5,0,-1,2,-1
1481269137516904,4,2,-2,5,-1,-1,0,3
1481269137516904,2,0,-2,-5,-2,-2,-2,-1
1481269137523844,-1,1,0,3,1,0,-4,-2
1481269137523844,-3,-1,0,0,0,-1,-2,1
1481269137539851,-3,-3,-3,-4,-2,0,1,-2
1481269137539851,2,-1,-2,2,-2,-1,1,0
1481269137546855,-3,0,0,3,5,0,2,1
1481269137546855,-1,-2,-2,2,-1,0,-1,0
1481269137562932,-3,-3,1,-4,-2,0,0,-3
1481269137562932,-1,-2,2,-1,2,0,0,-1
1481269137564867,-3,-1,-1,-1,-3,-2,-1,-3
1481269137564867,-2,0,1,2,2,-1,1,-2
1481269137576924,-3,-5,-2,2,1,-1,-1,-4
1481269137576924,-2,-4,-1,-2,-1,1,1,-4
1481269137584009,1,-2,-1,-1,0,0,-1,0
1481269137584009,-2,-3,0,-2,-1,-1,-1,-1
1481269137599931,0,1,-1,-4,-1,0,-1,2
1481269137599931,-5,0,2,0,0,0,-1,-2
1481269137607005,1,1,-1,1,-2,-1,1,2
1481269137607005,-1,-1,-2,-2,-1,-1,-2,-2
1481269137623014,3,-2,-3,-2,-3,-1,-1,0
1481269137623014,0,-1,-1,-2,0,0,1,-1
1481269137624918,-1,-1,-2,-2,-1,0,0,0
1481269137624918,-2,1,0,0,-1,-1,-2,-2
1481269137637514,-1,-1,0,-2,1,0,-2,2
1481269137637514,-3,-2,-3,0,0,-1,-2,1
1481269137644607,-2,-1,-1,1,0,-1,0,-1
1481269137644607,2,0,-1,0,1,1,-1,-1
1481269137660117,-1,-1,-1,-1,-3,-1,-1,-2
1481269137660117,3,0,-1,2,-3,-1,1,2
1481269137666086,2,0,-1,-2,-2,-2,0,-2
1481269137666086,-1,-3,0,2,-1,-2,-1,-2
1481269137683104,-1,-1,-2,-3,3,0,-1,-2
1481269137683104,0,-1,-1,-2,-1,-1,-1,-1
1481269137684027,0,-1,-1,0,-1,0,1,-2
1481269137684027,-3,-2,-2,-1,0,-1,-1,-4
1481269137697028,0,0,0,1,-1,-2,-1,-2
1481269137697028,0,0,-2,-3,-2,1,-1,0
1481269137704028,-3,-2,0,1,2,2,-2,-1
1481269137704028,-3,-2,-1,-1,0,1,0,0
1481269137720029,-2,1,-2,-1,1,0,0,0
1481269137720029,1,-2,0,1,-2,0,-1,-2
1481269137727094,0,-1,-2,-1,-2,-2,-3,-1
1481269137727094,-3,-1,2,1,-4,-2,1,-1
1481269137743046,0,-1,0,-1,-3,-2,1,-1
1481269137743046,0,1,2,3,8,-1,0,2
1481269137744543,-1,-2,-1,-2,-1,0,-2,-1
1481269137744543,1,-2,-3,-1,-1,0,0,0
1481269137757151,-1,0,-3,-2,-4,-1,0,-1
1481269137757151,-5,-2,0,0,-2,-1,-2,-3
1481269137764054,0,0,-1,-3,-2,-1,0,-1
1481269137764054,-2,-1,0,1,1,-1,-1,0
1481269137780059,-1,0,-1,0,1,-2,-2,-1
1481269137780059,0,-2,-2,-1,-1,-3,-1,1
1481269137787158,0,0,-3,0,-1,-1,1,-1
1481269137787158,3,1,-3,-4,-3,0,-1,0
1481269137803060,-4,-3,1,3,0,-1,0,-1
1481269137803060,0,-1,0,-2,-2,-1,-3,-1
1481269137805091,0,0,3,1,-1,1,1,-2
1481269137805091,1,0,1,-2,0,-1,-3,2
1481269137818132,0,-2,0,0,1,1,-2,1
1481269137818132,-1,0,-2,-3,-1,0,-2,-2
1481269137824065,0,-1,-2,0,-2,-1,-2,-3
1481269137824065,0,-1,1,0,1,-1,1,-3
1481269137840206,0,0,1,0,-2,0,-1,0
1481269137840206,-1,-1,-3,-4,-2,-1,0,0
1481269137846654,-1,0,-2,-1,-1,0,1,2
1481269137846654,-1,0,-1,-1,0,0,0,-1
1481269137863170,-1,0,-1,-3,-3,-3,0,-1
1481269137863170,1,-1,0,0,0,1,0,-2
1481269137864225,-1,-2,-2,-3,-1,-2,-2,0
1481269137864225,0,-1,-3,-4,-1,-2,-2,-2
1481269137877238,-5,-4,2,14,3,0,0,-3
1481269137877238,2,0,-4,-1,-2,-1,-2,1
1481269137884193,-2,-1,0,-3,1,-2,0,0
1481269137884193,-1,-1,1,1,-2,-1,-1,2
1481269137900249,2,0,-2,-7,-3,0,-1,0
1481269137900249,-1,-1,0,-3,0,-1,-2,0
1481269137907294,0,-2,-1,1,-1,0,1,-1
1481269137907294,-1,-3,-2,-2,0,-1,-1,1
1481269137923243,-1,-1,-1,-3,0,-2,2,1
1481269137923243,-4,-3,2,2,2,-1,0,-3
1481269137924260,-2,1,-2,-3,0,-1,-2,0
1481269137924260,-3,-1,-3,1,0,0,-2,-2
1481269137937188,-1,-2,0,-3,-2,2,-1,0
1481269137937188,-2,-3,0,0,-4,-2,0,-2
1481269137945683,0,-1,-1,-2,-1,0,-2,0
1481269137945683,-3,-2,-1,0,-2,-1,0,-3
1481269137960326,-2,-1,-1,0,-1,0,-1,-3
1481269137960326,0,-2,-1,-1,0,0,-2,-1
1481269137966259,-1,-4,-1,0,1,1,-1,-2
1481269137966259,1,1,2,0,-2,-2,0,-1
1481269137983202,1,0,-2,1,0,-1,1,2
1481269137983202,1,-2,-2,-2,-1,-1,2,1
1481269137984265,-5,-3,0,1,-2,-1,-1,0
1481269137984265,-1,-1,0,0,0,0,0,1
1481269137997217,-1,-2,-3,-3,-1,-1,1,1
1481269137997217,1,1,0,-1,-1,-2,-2,-2
1481269138006264,2,0,0,1,-2,-1,-2,0
1481269138006264,-1,0,-2,-3,-1,0,-1,0
1481269138020264,-1,0,-2,-2,0,-1,-3,-2
1481269138020264,-3,-2,1,2,0,1,1,-3
1481269138027329,2,-1,-2,-2,-4,-1,0,-1
1481269138027329,2,0,-1,-2,-3,-2,0,-2
1481269138043214,1,-1,-2,-3,-1,-2,-2,0
1481269138043214,0,1,-3,-4,0,-1,-1,2
1481269138044709,-7,-3,3,3,0,0,-2,-3
1481269138044709,-1,-2,-3,-3,-2,3,-1,-1
1481269138056299,-1,-1,-2,-5,-2,-1,0,-1
1481269138056299,3,1,-1,3,0,0,0,-1
1481269138065256,1,0,-1,0,-2,-2,1,-1
1481269138065256,1,1,-1,0,1,-1,-2,2
1481269138079224,-2,-1,3,-3,-1,-2,-3,-2
1481269138079224,1,1,-2,-4,-2,0,0,2
1481269138094288,1,1,-1,-1,0,-1,0,1
1481269138094288,-3,-3,-2,2,-2,-2,0,-2
1481269138103258,0,1,-3,0,-1,1,-1,-1
1481269138103258,-5,-3,2,1,-1,-2,-1,-3
1481269138104221,1,1,1,0,0,-2,-1,1
1481269138104221,0,0,0,0,-3,-3,-2,-1
1481269138117225,-2,-3,-2,2,-1,-2,-1,0
1481269138117225,0,-1,-1,-2,0,0,-1,1
1481269138125318,-1,-3,-1,0,2,1,-1,-2
1481269138125318,-4,-3,0,2,2,-1,-2,-2
1481269138140269,1,1,0,1,0,-1,-2,-1
1481269138140269,-2,-1,-2,-3,-4,-2,-1,-1
1481269138146736,-1,-1,-3,-2,0,-1,0,-1
1481269138146736,1,0,-1,-2,2,2,2,0
1481269138162777,0,0,-1,1,-1,-1,-1,-3
1481269138162777,-3,-1,-2,-1,-3,-1,-2,-3
1481269138164770,0,1,0,-1,-3,-1,0,0
1481269138164770,-2,0,1,2,0,-1,-1,-1
1481269138176774,-1,-2,1,-2,0,0,2,-1
1481269138176774,0,0,-1,0,0,-1,0,0
1481269138185773,-1,-1,0,-1,1,-1,-1,-1
1481269138185773,0,0,1,-2,-1,-1,-1,1
1481269138199790,-1,-2,0,-1,-1,-1,1,1
1481269138199790,0,0,-3,-2,-2,-2,1,1
1481269138206774,-2,-3,-2,0,-1,0,0,-1
1481269138206774,2,-1,-3,-3,-1,-1,-2,-1
1481269138221856,-1,-1,-1,-2,0,0,-1,-3
1481269138221856,-1,0,-1,-2,2,0,-3,0
1481269138228879,3,1,-6,-6,-4,-2,-2,3
1481269138228879,-1,-2,0,-4,-1,0,-1,0
1481269138236788,-1,-1,1,0,-2,-1,-2,1
1481269138236788,0,-1,-1,0,-3,-3,0,-1
1481269138246341,-2,-1,-1,-2,0,0,0,-2
1481269138246341,-1,-1,-4,-2,1,-1,1,2
1481269138259374,1,0,-2,-2,0,-1,-1,1
1481269138259374,-1,-3,-1,0,0,0,0,-1
1481269138266299,-2,-2,1,0,-1,0,0,-3
1481269138266299,0,0,1,2,-2,-3,0,-2
1481269138282376,1,-3,-2,-1,-2,-2,0,-1
1481269138282376,2,-1,0,-3,0,-1,0,1
1481269138289388,-2,-1,-1,-1,-1,-2,-1,-1
1481269138289388,-2,-1,0,-1,0,-1,-3,2
1481269138296305,0,1,-3,-2,1,-1,-2,-1
1481269138296305,-1,-4,-2,-3,-1,0,-1,-2
1481269138305405,-2,-1,0,0,0,-1,-1,-1
1481269138305405,-2,-4,0,-1,-1,1,2,-1
1481269138319370,-1,-1,0,-1,-2,1,0,-2
1481269138319370,-2,-3,-1,-1,-2,0,0,-2
1481269138326379,-1,-1,-1,-1,-1,-1,0,0
1481269138326379,-2,0,-1,0,1,-1,-1,-1
1481269138342316,0,-1,2,3,-1,0,-2,-2
1481269138342316,0,-1,0,-2,0,0,0,2
1481269138349330,-2,-1,0,0,-1,0,0,-3
1481269138349330,0,0,-4,-2,-1,0,-1,0
1481269138356334,-3,-3,0,-1,-1,-1,-2,0
1481269138356334,1,0,0,-3,-1,-1,0,-1
1481269138365391,0,1,2,-2,0,0,-1,1
1481269138365391,-2,-3,1,3,1,-1,1,-2
1481269138379331,-1,0,0,0,0,-2,-2,-2
1481269138379331,-1,-1,-2,-3,0,0,-2,0
1481269138386326,0,-2,-2,-2,-1,0,-1,-1
1481269138386326,1,-1,-2,-2,-1,-1,0,0
1481269138402405,0,-1,-2,-1,-2,0,0,1
1481269138402405,-2,-2,1,0,0,-2,-1,-2
1481269138409413,-1,-2,0,0,0,-2,-1,-4
1481269138409413,1,1,1,-1,-1,-1,-1,-1
1481269138425329,0,-3,0,0,1,-2,0,1
1481269138425329,0,0,0,0,-1,0,0,1
1481269138427331,-1,-2,-3,-2,-4,-2,-1,1
1481269138427331,-2,-2,-2,-4,-2,1,0,-1
1481269138439842,-3,-1,0,1,1,0,0,-1
1481269138439842,1,-4,-1,-1,0,0,-3,-2
1481269138446841,-1,-1,-1,0,0,-2,0,1
1481269138446841,0,0,-2,1,-2,-1,0,-4
1481269138462352,-2,0,0,-1,-2,0,0,0
1481269138462352,-3,0,1,0,1,-1,1,-2
1481269138469351,1,-2,1,-2,-1,-1,0,0
1481269138469351,0,0,0,0,-2,-1,-2,-1
1481269138493483,0,-2,-1,-1,-1,2,-1,-2
1481269138493483,-1,-2,-1,2,-2,0,0,-1
1481269138494350,-1,0,-1,0,0,0,1,-1
1481269138494350,-2,-1,0,1,0,-2,1,0
1481269138499373,1,0,-3,-1,-1,-2,-1,2
1481269138499373,1,0,-1,0,0,-2,-1,1
1481269138506375,-2,-2,-1,-2,0,0,-2,-1
1481269138506375,-1,-2,1,0,-2,0,-2,2
1481269138522429,0,0,0,0,-2,1,-2,-1
1481269138522429,-1,-1,-2,-3,-2,0,-2,0
1481269138529358,-1,0,-1,1,-1,-2,-2,-2
1481269138529358,-2,-1,0,0,1,0,-4,-2
1481269138545932,-1,-1,-2,-2,0,-2,0,-1
1481269138545932,-1,0,1,0,-1,1,0,-1
1481269138547363,2,2,-2,-3,-1,1,-2,1
1481269138547363,-1,-1,1,-1,-2,-2,-1,-2
1481269138559453,0,-3,0,-2,-1,-2,0,-1
1481269138559453,2,-1,-1,-1,-1,-1,-2,0
1481269138566446,0,0,-2,-3,-2,-1,0,-1
1481269138566446,-2,-1,1,2,2,-1,1,-3
1481269138582377,-3,0,-1,-3,-1,-2,-1,-3
1481269138582377,-1,-1,-1,0,-1,-2,0,-3
1481269138589379,-1,-3,2,2,-1,-1,-2,0
1481269138589379,3,-1,-3,-3,-1,-1,-1,2
1481269138605456,-3,-2,0,1,-1,0,-2,-1
1481269138605456,-2,-1,-2,-1,0,-1,-3,1
1481269138607421,-2,-2,0,1,-1,-1,0,-1
1481269138607421,-1,-2,-1,-1,-2,0,0,0
1481269138619381,-1,0,0,1,-1,-1,0,-2
1481269138619381,1,-2,-2,0,-3,-1,0,-1
1481269138626381,-1,-1,-1,-1,-2,0,1,-1
1481269138626381,-2,-1,-1,0,-1,-2,-1,-1
1481269138642458,-1,-1,-2,-3,0,1,-2,1
1481269138642458,-1,1,0,1,-2,-1,0,2
1481269138650293,-4,-3,1,-1,0,-1,0,-2
1481269138650293,-2,-1,-1,-1,-2,-2,-1,-1
1481269138665183,-1,-2,-3,-2,0,0,1,-1
1481269138665183,-1,-2,0,-2,0,0,0,-2
1481269138667160,1,2,-1,0,-1,-1,0,-1
1481269138667160,-1,-1,-3,-2,-1,2,1,-2
1481269138680227,1,-3,-1,-1,-2,-3,-2,-2
1481269138680227,-2,-1,0,1,-2,1,-2,-2
1481269138687228,-1,-2,1,0,2,-2,-1,-1
1481269138687228,0,-1,0,-3,0,0,-3,1
1481269138702295,-1,0,0,-1,-2,-2,0,1
1481269138702295,0,-1,-2,0,0,-1,1,-1
1481269138709242,-2,-1,-5,-1,1,-2,0,-2
1481269138709242,0,1,-2,-2,0,-1,1,-1
1481269138725231,1,-2,-3,-2,0,1,-2,0
1481269138725231,-2,-2,0,1,0,0,-1,0
1481269138725231,0,-1,-2,-2,0,-1,-1,0
1481269138725231,-2,-2,2,-2,-1,-2,0,-2
1481269138741321,0,-1,1,1,-1,0,-1,-1
1481269138741321,-2,-2,-3,-1,-2,-2,-2,-2
1481269138746754,0,1,-1,-2,-2,0,-2,1
1481269138746754,1,0,-1,-1,-1,-1,-2,1
1481269138769533,0,-1,-1,1,0,-2,0,0
1481269138769533,-1,-2,-2,-3,0,0,1,1
1481269138770531,-2,-1,0,-1,-1,0,1,-2
1481269138770531,-1,-1,-2,2,0,-2,-1,-2
1481269138784633,-2,-1,-1,-4,-1,0,-1,-1
1481269138784633,-2,0,-1,-1,-1,-1,1,-1
1481269138785534,-2,-3,-1,-1,-2,-1,-2,0
1481269138785534,1,0,0,2,1,0,-1,0
1481269138800573,1,0,-2,-2,-1,-1,-1,-1
1481269138800573,1,0,1,-1,-2,-1,-1,1
1481269138806614,0,0,1,-3,-2,0,-1,1
1481269138806614,-7,-5,1,2,1,2,-1,-3
1481269138822612,-1,2,0,0,-4,0,-3,1
1481269138822612,1,0,0,-1,0,0,-1,0
