timestamp,x,y,z
1481269123237811,-1.75,0.3125,0.0625
1481269123252811,0.0625,0.3125,-0.4375
1481269123273813,1.125,0.5,-0.9375
1481269123297815,-1.1875,0.6875,-1.0625
1481269123312814,-2.1875,0.6875,-0.6875
1481269123334327,-1.375,0.8125,-0.375
1481269123357839,-1,1.0625,-0.1875
1481269123388842,-1.4375,1.125,0.125
1481269123397846,-1.25,1.375,-0.0625
1481269123418905,-1.4375,1.5,-0.125
1481269123432946,-1.375,1.75,0.0625
1481269123454688,-1.3125,1.625,0.125
1481269123478692,0.9375,1.5,-0.4375
1481269123506776,0.75,1.0625,-0.5
1481269123519199,-0.125,0.5,-0.4375
1481269123536778,0.9375,-0.0625,-0.4375
1481269123551730,1.5,-0.3125,-0.3125
1481269123573821,0.625,-0.4375,0.25
1481269123596800,1.0625,-0.3125,0.625
1481269123611824,1.625,-0.1875,0.75
1481269123634244,0.25,-0.0625,0.875
1481269123665254,0.1875,-0.0625,0.4375
1481269123671254,1.125,-0.125,-0.3125
1481269123694321,1.1875,-0.5,-0.5625
1481269123717266,1.1875,-0.75,-0.5
1481269123731765,1.3125,-0.75,-0.875
1481269123754310,0.75,-0.5625,-1.75
1481269123785272,-1.125,-0.3125,-2.125
1481269123791277,-1.5,0.375,-2.125
1481269123814345,-0.8125,0.6875,-0.875
1481269123836904,0.25,1.125,0.4375
1481269123851890,1.8125,1.625,1.5625
1481269123873827,3.9375,1.9375,1.25
1481269123896902,1.875,2,1.1875
1481269123919909,-2.125,1.9375,1.625
1481269123933948,-2.625,1.625,2.3125
1481269123957509,0.0625,1.5,3.125
1481269123979443,2.625,1.5,3.125
1481269123994565,3.0625,1.1875,2.75
1481269124017450,3.5,1,1.625
1481269124040062,0.5625,1,0.9375
1481269124062026,-3.8125,-0.6875,1.4375
1481269124077031,1.75,-3.4375,1.25
1481269124100094,6.0625,-3.125,0.8125
1481269124114050,0.3125,-2.3125,1.875
1481269124137167,-0.625,-1.6875,3
1481269124160156,2.625,-1.25,2.875
1481269124174087,2.875,-2,2.3125
1481269124197091,0,-2.8125,2.75
1481269124220138,-1.75,-3.1875,3.0625
1481269124234154,-1.875,-2.75,3.125
1481269124257655,-2.0625,-2.75,3.375
1481269124279656,-0.375,-2.625,3.75
1481269124293656,1.6875,-1.9375,2.625
1481269124317592,1.4375,-1.75,1.625
1481269124341312,0.3125,-1.5625,0.75
1481269124354374,-0.9375,-0.6875,0.375
1481269124377313,-4.1875,0.3125,0
1481269124399313,-4.8125,0.6875,-0.1875
1481269124414315,0.3125,1.375,-1.0625
1481269124436916,1.3125,2.4375,-2.25
1481269124459916,-4,3.75,-2.125
1481269124473832,-8.5,5.0625,-1
1481269124496901,-9.3125,5.5,0.4375
1481269124518919,-6.5625,4.625,2.125
1481269124534413,-2.1875,3.375,3.125
1481269124556950,0,1.6875,2.6875
1481269124580945,-2.25,-0.5,1.4375
1481269124593944,-4.25,-2.0625,0.3125
1481269124617944,-4.0625,-2.625,-0.375
1481269124639050,-2.375,-1.875,-0.4375
1481269124654051,-2.9375,-0.5625,0.5
1481269124675959,-4.75,0.5,1.3125
1481269124698960,-5.4375,0.875,1.25
1481269124713961,-4.125,0.875,1.0625
1481269124736976,-2.5625,0.9375,1.125
1481269124758977,-1.4375,1.0625,1.125
1481269124773979,-0.8125,0.8125,1.5
1481269124795980,-2.5625,0.875,1.625
1481269124818981,-2.9375,0.4375,1.3125
1481269124834491,0.1875,0.3125,0.375
1481269124856493,2.4375,-0.0625,-0.5
1481269124878995,1,-0.375,-1
1481269124893997,-0.1875,-0.125,-1.125
1481269124917000,-1.625,0.1875,-1.0625
1481269124939003,-3.3125,0.1875,-0.6875
1481269124955505,-0.875,0,-1
1481269124976507,1.5,0.0625,-1.875
1481269124999529,-0.375,-0.0625,-2.1875
1481269125015512,-3.4375,-0.375,-1.8125
1481269125036515,-2.4375,0.1875,-1.5
1481269125059018,-1.875,0.625,-1.4375
1481269125075520,-2.625,0.8125,-1.25
1481269125096523,-1.1875,0.625,-1.25
1481269125119533,0.75,0.75,-1.625
1481269125135529,-0.75,1,-1.25
1481269125156531,-3.6875,1.5,-0.6875
1481269125179033,-3.4375,1.375,-0.125
1481269125195535,0,1.1875,-0.125
1481269125216538,1.5,0.6875,-0.3125
1481269125239041,0.5625,0.3125,-0.5
1481269125255543,0.3125,-0.1875,-0.1875
1481269125276545,3.4375,-0.125,0
1481269125299049,1.125,0.6875,0.3125
1481269125315551,-0.75,1.4375,-0.375
1481269125336554,1,2.0625,-1.9375
1481269125359056,-1.0625,2.8125,-2.625
1481269125375558,-4.3125,2.625,-2.3125
1481269125396561,-3.5,2.75,-2
1481269125419064,-0.0625,3.125,-1.5625
1481269125435566,-0.1875,3,-1.5
1481269125457068,0.6875,2.4375,-1
1481269125479071,2,2,-1.5
1481269125495574,2.125,0.8125,-1.5
1481269125516576,1.25,0.8125,-1.25
1481269125539085,-2.125,1,-1.0625
1481269125561087,-3.625,0.8125,-1.3125
1481269125576088,-0.375,0.4375,-2
1481269125599088,1.625,-0.25,-2.625
1481269125621597,0.5625,-0.125,-2.375
1481269125636599,-2.625,0.1875,-1.875
1481269125659106,-1.75,-0.25,-1.5
1481269125681108,3.25,-0.5,-1.6875
1481269125696109,2.625,-0.875,-1.375
1481269125719110,0.6875,-1.3125,-0.875
1481269125741125,1.6875,-1.4375,-0.6875
1481269125756125,0.125,-0.875,-0.8125
1481269125779129,-2.625,-0.125,-0.625
1481269125801128,-3.375,-0.1875,-0.5
1481269125816130,0.9375,-0.125,-0.9375
1481269125839230,2.875,-0.75,-1
1481269125861232,0.6875,-1.25,-0.5
1481269125878230,-1.625,-1.5,-0.625
1481269125899235,-1.1875,-1.25,-0.875
1481269125921746,-1.5,-1.875,-0.625
1481269125937882,1.3125,-2.0625,-0.6875
1481269125958895,1.5625,-2.5625,-1
1481269125981975,0.0625,-3.1875,-0.8125
1481269125997819,0.5625,-3.375,-0.25
1481269126018821,0.25,-3.0625,0.0625
1481269126042073,-2.0625,-2.0625,0.3125
1481269126058007,-0.5625,-1.625,0.1875
1481269126079008,3.75,-1.25,-0.375
1481269126101009,2.4375,-1.125,-0.875
1481269126118015,-1.375,-0.6875,-0.625
1481269126139178,-5.3125,0,-0.375
1481269126161240,-3.875,0.5625,-0.1875
1481269126178161,-0.1875,0.75,-1
1481269126199168,0.25,1.125,-1.5625
1481269126221243,-4.4375,1.8125,-1.8125
1481269126238217,-5.75,2.5625,-2
1481269126259298,-1.75,3.75,-2.625
1481269126281300,-2.875,4.8125,-3.25
1481269126298225,-5,5.8125,-4
1481269126320223,-5.6875,6.5,-5.1875
1481269126341325,-9,7.0625,-6.9375
1481269126358353,-8.4375,8.125,-7.75
1481269126379396,-5.125,10.3125,-8.9375
1481269126401331,-10.8125,13.6875,-8.8125
1481269126418397,-17.25,15.8125,-7.9375
1481269126439472,-15.1875,19.75,-10.125
1481269126461488,-16.125,22.0625,-11.375
1481269126477564,-13.4375,23.375,-12.9375
1481269126499527,-8.6875,26.375,-14.625
1481269126521470,-16.5625,29.75,-17.125
1481269126537542,-26.6875,28.875,-17.125
1481269126561788,-19.6875,28.1875,-17.75
1481269126581856,-9.375,27.4375,-20.0625
1481269126597798,-7.3125,27.5,-22.125
1481269126618857,-12.5,24.875,-21.0625
1481269126641314,-5.9375,22.1875,-20.375
1481269126658392,0.3125,22.1875,-20.3125
1481269126679387,-0.25,24,-20.5625
1481269126701347,-7,24.375,-19.4375
1481269126718324,-12,22.8125,-19.1875
1481269126739031,-4.9375,21.5625,-18.375
1481269126761952,-2.3125,22.0625,-18.5625
1481269126783916,-7.125,21.5,-18.0625
1481269126798949,-8.3125,18,-16.5
1481269126820993,-2.25,16.6875,-16.625
1481269126844087,8.9375,17.8125,-16.875
1481269126860161,7.875,18.75,-17.125
1481269126882113,-0.0625,18.75,-16.625
1481269126904090,-3.625,17.375,-14.9375
1481269126921156,-5.4375,18.1875,-15.4375
1481269126941613,-5.1875,19.6875,-16.0625
1481269126964636,-2.3125,19.5625,-16.25
1481269126980540,-0.3125,19.9375,-16.75
1481269127001538,-8.8125,20.0625,-16.8125
1481269127024590,-13.25,20.4375,-17.625
1481269127040590,-6.25,21.1875,-17.3125
1481269127061591,-1.8125,21.5625,-18.1875
1481269127083592,-4.0625,21.0625,-18.625
1481269127100593,-7,19.5625,-17.8125
1481269127121605,-7.875,18.8125,-16.75
1481269127143742,-2.0625,19.25,-16.375
1481269127160665,-1.875,20.3125,-16.5
1481269127181688,-3.5,20.4375,-16.6875
1481269127203746,-6,20.6875,-16.5
1481269127220675,-7.3125,20.0625,-16.0625
1481269127241276,-5.6875,18.875,-15.75
1481269127272201,0.375,19.625,-16.0625
1481269127280269,1.1875,19.8125,-15.9375
1481269127301210,-5.3125,20.5,-15.5
1481269127324297,-11.125,22.0625,-14.5625
1481269127340950,-12.625,22.125,-13.0625
1481269127361986,-7.4375,22.0625,-12.4375
1481269127391946,-3.375,22.25,-11.625
1481269127400924,-5.625,22.5,-10.8125
1481269127422003,-9.5,23.25,-10.375
1481269127444016,-18.1875,25.375,-10
1481269127468015,-25.0625,27.4375,-9.8125
1481269127481117,-25.75,27.875,-9.25
1481269127504020,-23.0625,27.5625,-9.125
1481269127520031,-21.875,27.125,-9
1481269127541688,-24.4375,25.625,-8.5625
1481269127563690,-24.875,24,-8.3125
1481269127580615,-21.4375,23.625,-8.5625
1481269127601693,-21.75,24.6875,-9.0625
1481269127624128,-23.6875,24.6875,-8.9375
1481269127640477,-20.0625,25.25,-8.6875
1481269127661553,-17.3125,27.25,-8.5
1481269127684549,-20.375,27.9375,-8.125
1481269127700479,-23.4375,28.0625,-8.1875
1481269127721506,-21.5625,28.125,-8.75
1481269127744563,-20.0625,29.5625,-10.25
1481269127760612,-21.3125,30.625,-10.6875
1481269127782626,-23.25,29.3125,-11.0625
1481269127804568,-22,28.625,-11.1875
1481269127828076,-21.5,28.9375,-11.3125
1481269127843624,-22.6875,28.25,-10.8125
1481269127864593,-16.9375,27.125,-10.25
1481269127880596,-11.5625,26.6875,-10.25
1481269127903654,-15,26.9375,-10.3125
1481269127924097,-20.25,27.75,-9.75
1481269127940608,-21,27.9375,-9.25
1481269127963673,-16.25,28.3125,-9.1875
1481269127983610,-19,28.625,-8.875
1481269128000611,-25.8125,28,-7.125
1481269128022648,-26.5625,27.125,-5.5625
1481269128044218,-22.3125,27,-5
1481269128060215,-19.625,27.125,-4.25
1481269128083212,-19.75,26.5625,-3.125
1481269128104283,-13.8125,26.5,-3.0625
1481269128120216,-7.8125,27.0625,-3.875
1481269128143324,-15.625,28.1875,-3.6875
1481269128164389,-24.5,27,-2.125
1481269128180325,-22.1875,26.3125,-1.5
1481269128203358,-15.75,26.1875,-1.5
1481269128225866,-11.75,25.875,-2.0625
1481269128239833,-8.1875,25.1875,-2.25
1481269128262845,-7.5625,25.25,-2.6875
1481269128283846,-11.75,27.1875,-3.5
1481269128299845,-18.1875,27.4375,-3.875
1481269128322849,-19.1875,27,-3.6875
1481269128351946,-18.4375,27.5,-4.1875
1481269128360948,-16.0625,27.375,-5.375
1481269128382951,-11.4375,26.25,-5.5
1481269128403971,-8.125,25.125,-5.3125
1481269128426960,-11.4375,25.3125,-5.1875
1481269128442966,-15.4375,25.1875,-3.875
1481269128464045,-15,25.25,-3.25
1481269128487037,-14.75,25.125,-3.6875
1481269128504004,-15,26.5,-3.8125
1481269128524568,-18.4375,26.75,-3.5625
1481269128546654,-18.8125,25.875,-3.375
1481269128562678,-13.25,24.9375,-4
1481269128583549,-13,25.125,-5.125
1481269128606554,-12.625,24.5,-4.75
1481269128622680,-8.8125,25,-4.75
1481269128644038,-6.3125,26.125,-4.625
1481269128666949,-7.9375,26.8125,-3.5625
1481269128682946,-7.0625,26.625,-2.25
1481269128705951,-7.4375,26.8125,-1.5625
1481269128726473,-6.5625,26.5625,-1.3125
1481269128743577,-4.75,27.1875,-1.625
1481269128765509,-5.375,26.75,-1.4375
1481269128786587,-5.25,25.5625,-1.375
1481269128803645,-6.625,25.4375,-1.6875
1481269128825872,-8.5,24.5,-1.1875
1481269128854631,-6.1875,23.0625,-1.125
1481269128863623,-3.5625,22.0625,-1.0625
1481269128885555,-1.5625,20.5625,-1.3125
1481269128906636,-4.3125,20,-1.5
1481269128922624,-6.3125,18.6875,-1.3125
1481269128945609,-2.75,17.75,-1.3125
1481269128966615,-0.5625,17.5625,-2.125
1481269128982646,-6.1875,16.375,-2.3125
1481269129005613,-6.1875,14.875,-2.25
1481269129026630,-1.0625,14.6875,-3.875
1481269129042882,-4.0625,13.6875,-3.9375
1481269129065812,-3.0625,11,-2.4375
1481269129086824,5.75,10.1875,-2.0625
1481269129102813,7.6875,11.125,-1.75
1481269129125948,2.875,10.8125,-1.3125
1481269129146255,3.5,10.375,-0.625
1481269129163158,7.4375,10.4375,-1.1875
1481269129186230,6.0625,9.8125,-1.375
1481269129206172,3.625,10.4375,-1.125
1481269129223162,2.625,10.6875,-1.4375
1481269129245368,1.375,10.375,-2.5
1481269129266410,-0.0625,10.375,-3.0625
1481269129283436,-4.9375,10.4375,-2.875
1481269129305369,-5.3125,9.625,-2.3125
1481269129334987,-1.75,9.375,-2.4375
1481269129343579,-2.3125,8.25,-2.6875
1481269129365516,-1.1875,8.625,-3.1875
1481269129386595,-0.6875,9,-3.9375
1481269129403584,-4.6875,8.0625,-3.9375
1481269129425520,-7.4375,6.6875,-3.75
1481269129455175,-6.25,6.1875,-4.0625
1481269129463108,-2.3125,4.9375,-3.9375
1481269129493109,0.5,4.6875,-3.25
1481269129506209,-1.5,5.875,-2.9375
1481269129523111,-5,6.6875,-2.125
1481269129545681,-4.375,5.75,-0.9375
1481269129566681,-4.8125,5.4375,-0.4375
1481269129582683,-7.125,4.75,-0.375
1481269129612718,-2.25,4.25,-0.625
1481269129628277,1.3125,3.25,-0.8125
1481269129643126,-2.75,3.0625,-0.125
1481269129666189,-2.125,1.9375,-0.375
1481269129688124,-0.0625,1.6875,-0.5625
1481269129703126,-2.25,1.625,0
1481269129725755,-5.5,1,0.375
1481269129747927,-4.1875,0.8125,0.25
1481269129769014,-1.4375,0.5,-0.375
1481269129785019,-2.4375,0.8125,-0.625
1481269129806978,-5.0625,0.1875,0
1481269129822032,-2.9375,-0.3125,0.3125
1481269129845115,-0.1875,0,-0.0625
1481269129867003,1.25,-0.0625,-0.125
1481269129891072,2.625,-0.25,0.8125
1481269129905076,1.4375,-0.375,1
1481269129927692,-1.3125,0.3125,0.9375
1481269129943615,-0.9375,0.8125,0.6875
1481269129964629,2.125,0.625,0.5625
1481269129987685,1.3125,0.75,0.9375
1481269130003618,-2.125,1.1875,1.125
1481269130024697,-2.4375,1.1875,1
1481269130047285,0.3125,0.875,0.6875
1481269130063205,1.1875,0.5,0.625
1481269130084209,0.375,0.5,0.8125
1481269130107210,0.125,0.1875,0.625
1481269130123214,0,0.0625,0.5625
1481269130144342,-1.1875,0,0.4375
1481269130168398,-1.5,0,0.125
1481269130189270,-1.8125,0.125,-0.125
1481269130204336,-1.0625,0.1875,-0.625
1481269130227380,-0.3125,-0.125,-1.125
1481269130249954,-0.625,-0.75,-1.25
1481269130264952,-1.9375,-1,-1.0625
1481269130287062,-1.9375,-1.0625,-1.0625
1481269130309952,0.8125,-1.25,-1.5
1481269130324951,2.0625,-1.125,-2
1481269130347056,-0.375,-0.6875,-1.75
1481269130369987,-2.0625,-0.4375,-1.0625
1481269130385057,-1.75,-0.25,-1.125
1481269130406978,-1.4375,-0.1875,-2.25
1481269130429996,0.375,-0.5625,-2.9375
1481269130444656,1.0625,-1.1875,-2.8125
1481269130467709,-2.4375,-1.5,-2.125
1481269130489580,-4.25,-1.375,-1
1481269130504658,0.1875,-1,-0.8125
1481269130527683,3.75,-0.5625,-0.75
1481269130549693,1.75,-0.3125,0
1481269130564696,-0.75,0.125,0.8125
1481269130586771,-1.125,0.9375,0.5625
1481269130609692,-2.125,0.625,0.375
1481269130624775,-1.25,0.3125,-0.125
1481269130647031,-1.4375,0.25,-0.4375
1481269130670013,-2.8125,-0.125,-0.5
1481269130685008,-2.5625,-0.5,0.0625
1481269130706951,-1.125,-0.4375,0.0625
1481269130729964,-0.3125,0.0625,-0.75
1481269130744474,-0.8125,-0.3125,-1.375
1481269130767477,-1.5,-0.75,-1.6875
1481269130789477,-2.75,-1.375,-1.9375
1481269130806540,-1.4375,-1.8125,-2.5
1481269130827620,-1.6875,-1.75,-3.375
1481269130849567,-3.625,-1.6875,-3.25
1481269130865569,-3.9375,-0.9375,-2.125
1481269130886637,-4.375,-0.25,-0.5625
1481269130909639,-2.8125,-0.25,0.8125
1481269130926611,1.625,0.1875,0.9375
1481269130947434,2.6875,0.125,0.25
1481269130969367,0.25,-0.5625,-0.125
1481269130986369,-2.625,-0.375,-0.5
1481269131007370,-5.25,-0.25,-0.5
1481269131029956,-5.875,-0.1875,0.375
1481269131045590,-2.1875,0.25,0.8125
1481269131067586,-0.625,0.25,1.125
1481269131089524,0,0.8125,1.3125
1481269131106593,-1.25,0.75,1.5625
1481269131127595,-3.0625,0.5,2.125
1481269131150227,-0.75,0.125,1.8125
1481269131166185,1.625,0.25,1.5
1481269131187189,1.875,0.1875,1.125
1481269131210191,1.0625,0.9375,1
1481269131226188,-1.4375,1.1875,0.9375
1481269131247213,-3.5625,1,1
1481269131269284,-2.5625,0.8125,1.0625
1481269131286216,-0.125,0.0625,1.375
1481269131307298,1,0.1875,1.25
1481269131329747,0.75,0.5,1.25
1481269131345930,0.5,0.625,1.25
1481269131366801,0.125,0.3125,1.3125
1481269131389815,-0.5,-0.125,1.125
1481269131406862,-1,0.0625,0.75
1481269131434820,0.3125,0.3125,0.875
1481269131449292,-0.625,0.375,1.375
1481269131466290,-2.125,0.75,1.625
1481269131487411,-1.6875,0.75,1.5
1481269131509314,1.25,0.4375,1.375
1481269131526293,1.8125,0,1.375
1481269131554950,-0.375,0.0625,1.5625
1481269131569952,0.4375,-0.0625,1.375
1481269131585015,0.9375,-0.0625,1.0625
1481269131607013,-0.0625,-0.0625,0.8125
1481269131629953,0,-0.125,0.0625
1481269131645464,-0.3125,-0.6875,-0.125
1481269131667466,-1.0625,-0.9375,-0.125
1481269131689492,-1.1875,-1.5,-0.25
1481269131705473,-0.1875,-1.5,-0.1875
1481269131728986,-0.1875,-1.75,-0.25
1481269131749341,0.0625,-2.1875,0
1481269131765406,-0.375,-1.625,-0.0625
1481269131788353,-2.1875,-0.9375,0.1875
1481269131809422,-3.3125,-0.1875,0.6875
1481269131832443,-1.5625,-0.375,0.6875
1481269131849168,1.0625,-0.6875,0.3125
1481269131870107,1.5625,-0.625,0.375
1481269131886172,-0.375,-0.625,0.5
1481269131909168,-1.25,-0.375,0.4375
1481269131930288,-0.4375,0.25,0.125
1481269131954304,-1.8125,0.875,0.4375
1481269131968296,-1.8125,1.1875,0.75
1481269131990340,0,0.6875,0.6875
1481269132005239,1.8125,0.25,0.4375
1481269132028950,1.3125,0.1875,0.25
1481269132049484,-0.4375,0.1875,0.25
1481269132065485,0.25,0.25,-0.125
1481269132088482,0.9375,0.4375,-0.625
1481269132111488,-0.5625,0.5625,-0.6875
1481269132125485,-2.25,0.125,-0.0625
1481269132148699,-1.25,-0.25,-0.375
1481269132169703,1.0625,-0.125,-0.8125
1481269132192806,1.625,-0.375,-0.6875
1481269132208705,0.25,-0.5,-0.0625
1481269132229823,-2.1875,-0.5625,0.25
1481269132253337,-0.25,-0.5,-0.1875
1481269132268402,2.625,-0.125,-1.125
1481269132289337,0,0.25,-0.6875
1481269132312415,-3.5625,0.125,0.0625
1481269132328984,-2.375,-0.0625,-0.125
1481269132349494,0.875,0.375,-0.4375
1481269132372496,-0.5,0.125,-0.25
1481269132388562,-0.5,-0.3125,0.4375
1481269132409575,1.6875,-0.4375,-0.1875
1481269132432649,0.0625,-0.5,-0.4375
1481269132449203,-1.0625,-0.6875,-0.25
1481269132470184,0.125,-0.5,-0.1875
1481269132492220,-0.1875,-0.0625,-0.1875
1481269132508140,-0.8125,-0.125,0.0625
1481269132529737,0.9375,-0.5,0.4375
1481269132552296,1.3125,-0.75,0.375
1481269132568300,0.6875,-0.5,0
1481269132589306,0.25,-0.25,-0.125
1481269132612364,-0.1875,-0.125,0.3125
1481269132628297,-1.8125,-0.125,0.5
1481269132649819,-1.25,-0.25,0.0625
1481269132671821,0.875,0.0625,-0.1875
1481269132687836,0.25,-0.125,0.0625
1481269132711889,-1,-0.5,0.4375
1481269132732341,-0.6875,-0.375,0.4375
1481269132748854,1.125,-0.375,-0.0625
1481269132771886,0.875,-0.5625,-0.25
1481269132791885,-0.125,-0.875,0.375
1481269132807925,0.6875,-0.75,0.0625
1481269132831488,1.75,-0.6875,-0.0625
1481269132852076,2.125,-0.5,0.0625
1481269132868002,1.75,-0.6875,0.0625
1481269132891002,1.75,-0.75,-0.3125
1481269132912081,1.6875,-0.6875,-0.6875
1481269132928001,0.0625,-0.6875,-0.75
1481269132950843,-0.375,-0.5625,-0.5625
1481269132972845,-1.125,-0.375,-0.625
1481269132988743,0.1875,-0.25,-0.75
1481269133018744,0.5625,-0.5625,-0.8125
1481269133032339,-1,-0.375,-0.3125
1481269133047944,-1.5,-0.125,-0.3125
1481269133070891,-0.875,-0.25,-0.5625
1481269133091940,0.625,-0.1875,-0.6875
1481269133107946,0.625,-0.25,-0.875
1481269133131688,-1.75,-0.5,-0.25
1481269133152675,-0.0625,-1.0625,0.0625
1481269133168642,3.3125,-1,-0.5625
1481269133191643,3.875,-0.75,-0.6875
1481269133212708,0.6875,-0.3125,-0.1875
1481269133228646,-0.1875,-0.125,0
1481269133251136,0.625,-0.25,-0.25
1481269133272140,1.125,-0.125,-0.375
1481269133288139,0.875,0,0
1481269133311140,-0.6875,-0.25,0.75
1481269133332726,-0.9375,0.4375,0.875
1481269133348228,1.125,0.9375,0.375
1481269133371231,1.6875,0.8125,0.5
1481269133392231,-0.5,0.5,0.9375
1481269133408233,-1.25,0.0625,1
1481269133431318,0.5,-0.1875,0.3125
1481269133452406,1.8125,-0.4375,0.0625
1481269133467407,0.75,-0.8125,0.125
1481269133498407,-0.125,-1.125,0.375
1481269133512501,0.875,-0.6875,-0.0625
1481269133528476,0.625,-0.375,-0.4375
1481269133550478,-1.3125,-0.625,-0.3125
1481269133572487,-1.25,-0.75,-0.0625
1481269133588516,-0.5625,-1,-0.1875
1481269133610478,-1.125,-0.75,-0.4375
1481269133634004,-0.0625,-0.3125,-0.125
1481269133648606,1.125,-0.8125,-0.4375
1481269133670549,1.5625,-1.125,-0.0625
1481269133693613,1.5,-0.75,0.375
1481269133708552,-0.4375,-1.125,0.25
1481269133730549,-2.3125,-1.0625,-0.6875
1481269133753664,-2.875,-1,-1.5625
1481269133774671,-4.9375,-1.9375,-1.5625
1481269133790668,-3.875,-2.6875,-0.5625
1481269133813668,-0.5,-2.9375,0.1875
1481269133835216,3.25,-3.1875,0.5625
1481269133851255,4.1875,-3.375,0.625
1481269133874257,1.1875,-2.9375,0.75
1481269133895215,-0.3125,-2.75,0.4375
1481269133910234,-0.375,-2.4375,0.0625
1481269133934247,-1.3125,-2.4375,-0.1875
1481269133955284,0.3125,-2.4375,-0.75
1481269133970292,0.5,-2.9375,-0.875
1481269133993287,-2.375,-3.5625,0.0625
1481269134015225,-1.5,-4.625,0.625
1481269134030737,3,-5.5625,0.875
1481269134054249,4.125,-5.9375,0.8125
1481269134074258,1.25,-5.8125,0.4375
1481269134090250,-1.9375,-5.875,0.375
1481269134114290,-3.75,-6.25,0.375
1481269134134772,-3.4375,-6.875,0.875
1481269134150278,-0.6875,-7.75,1.375
1481269134173343,1.1875,-8.1875,1.8125
1481269134195315,3.125,-8.9375,1.8125
1481269134211288,4.4375,-9.1875,1.4375
1481269134233805,2.125,-8.8125,1.375
1481269134254380,0.5625,-9.25,1.8125
1481269134270314,0.625,-9.625,2.125
1481269134293357,2.9375,-10,1.875
1481269134314321,5,-10.3125,0.9375
1481269134331337,3.25,-11.1875,1.0625
1481269134353967,2.375,-11.875,1.625
1481269134375058,3.25,-12.25,2.1875
1481269134390949,3.75,-12.25,2.375
1481269134412948,4.0625,-12.625,2
1481269134434964,5.8125,-13.0625,1.875
1481269134451080,4.25,-13.5625,1.8125
1481269134473021,2.4375,-13.75,1.8125
1481269134495116,3.5,-14.5,1.5625
1481269134510085,5,-15.75,1.9375
1481269134533032,5.9375,-16.1875,2.125
1481269134555196,6.3125,-16.25,2.1875
1481269134571165,5.6875,-15.9375,2
1481269134593102,3.6875,-16.375,2.25
1481269134616101,3.375,-16.4375,2.25
1481269134631135,4.625,-16.3125,2
1481269134653222,4.625,-15.9375,1.875
1481269134676221,4.1875,-16.25,1.9375
1481269134690222,2.1875,-15.9375,2.375
1481269134713219,1.25,-15.5625,2.375
1481269134736798,-0.5625,-15.25,2.3125
1481269134750318,0.5,-14.8125,2.25
1481269134773318,0.5,-13.9375,2.25
1481269134796321,0,-13.875,1.9375
1481269134810351,-0.5625,-13.375,1.75
1481269134833332,-3.25,-14.75,2.5
1481269134856366,-0.5,-15.625,3.0625
1481269134870366,2.375,-15.125,2.4375
1481269134893374,1.75,-14.6875,2
1481269134916369,0.9375,-14.5,2
1481269134930371,-2.9375,-14.5625,3.0625
1481269134953462,-4.875,-14.9375,4
1481269134976426,-1.4375,-15.8125,3.875
1481269134990493,2.625,-16,3.75
1481269135013489,1.875,-15.75,3.75
1481269135036442,0,-16.4375,3.6875
1481269135050480,1.125,-17.25,3.375
1481269135073547,2.5625,-17.625,2.375
1481269135096484,1.3125,-18.1875,2.25
1481269135117487,1.9375,-19.1875,2.75
1481269135133534,5,-19.6875,2.625
1481269135156009,7.875,-17.875,1.8125
1481269135177129,2.6875,-16.375,1.4375
1481269135193011,-1.375,-20.8125,2.1875
1481269135216016,13.9375,-26.9375,3.375
1481269135237528,28.8125,-27.125,2.625
1481269135252750,26.375,-25.875,3.6875
1481269135276699,21.625,-26.3125,5.75
1481269135297685,20.0625,-27.0625,6.3125
1481269135319626,19.625,-25.875,6.25
1481269135336198,16.625,-24.8125,7.125
1481269135357240,15.3125,-24.4375,8.125
1481269135373142,13.8125,-24.125,7.8125
1481269135395276,9,-22.5625,7.125
1481269135417147,1.375,-21.25,8
1481269135433161,-1.0625,-21.1875,8.8125
1481269135455962,4.4375,-21.625,9.625
1481269135477073,9.375,-22.375,10.3125
1481269135492963,13.3125,-22.1875,11.625
1481269135515969,10.625,-22.5625,12.5
1481269135538981,9.8125,-24.25,13.1875
1481269135553473,16.5625,-25.125,13
1481269135575441,18.0625,-23.4375,12.1875
1481269135598440,11.75,-22.8125,13
1481269135613475,12.3125,-24.9375,14.0625
1481269135635953,19.375,-26.875,13.9375
1481269135658533,23.625,-28.5625,13.875
1481269135673533,26.6875,-27.6875,14.1875
1481269135695465,25.75,-26.875,14.5
1481269135719470,24.6875,-26.8125,14.5
1481269135733555,23.125,-25.75,14
1481269135755488,23.125,-24.25,13.375
1481269135779469,21.4375,-21.625,12.625
1481269135799500,17.875,-20.3125,12.3125
1481269135815425,16.5,-19.75,12.875
1481269135839468,18.3125,-19.375,13.375
1481269135859446,18.375,-19.375,13.9375
1481269135875429,15,-20.125,15.625
1481269135898412,15.75,-19.875,16.9375
1481269135919450,21,-19.3125,17.25
1481269135935950,23.125,-18.75,17.25
1481269135958465,19.0625,-18.8125,17.1875
1481269135979511,15.5625,-19.0625,17.0625
1481269135996463,14.125,-18.375,16
1481269136018528,13.1875,-17.875,14.9375
1481269136039956,14.5625,-19,14.8125
1481269136055428,20.375,-19.0625,14.375
1481269136078425,21,-17.5,13
1481269136099493,15.5,-17.3125,13.625
1481269136115426,11.9375,-17.0625,14.1875
1481269136138950,13.6875,-16.875,12.875
1481269136159454,15.625,-17.5,12.0625
1481269136175466,13.3125,-19.875,13
1481269136198493,16,-22,14.125
1481269136219461,23.375,-21.25,14.25
1481269136235980,24.0625,-19.6875,13.4375
1481269136258598,23,-19.75,14.1875
1481269136279533,21.1875,-19.875,14.5
1481269136295531,15.125,-20,14.1875
1481269136317635,13.9375,-20.875,13.1875
1481269136340047,17.3125,-18.1875,10.375
1481269136355252,14.4375,-16.8125,9.875
1481269136378259,14.9375,-16.4375,10.1875
1481269136399258,18.25,-15.6875,8.8125
1481269136415259,15.4375,-15.5,7.75
1481269136438268,11.625,-15.8125,7.625
1481269136459846,9.6875,-16.125,7.375
1481269136475780,11.4375,-17.625,7.375
1481269136498845,14.125,-19.375,8.0625
1481269136520846,15.1875,-21.625,9.0625
1481269136535794,15.5,-22.75,10.8125
1481269136558443,20.375,-23,11.5625
1481269136581412,24.125,-22.375,12
1481269136596419,23.8125,-21.4375,12.375
1481269136618479,22.8125,-21.8125,13
1481269136641508,22.6875,-22.375,13.3125
1481269136655841,21.875,-21.75,13.6875
1481269136677907,17.75,-21.4375,13.5
1481269136700858,17.9375,-23.625,14.5625
1481269136715843,24.8125,-25.0625,15.0625
1481269136738359,26.25,-24.75,15.1875
1481269136761369,19.9375,-24.1875,16.5625
1481269136782374,15.3125,-24.625,17.625
1481269136798372,12.0625,-25.0625,17.6875
1481269136827372,10.75,-26.75,18.6875
1481269136842386,12.25,-28.375,19.4375
1481269136858395,15.25,-28.375,19.875
1481269136881392,15.5625,-27.5,20.6875
1481269136902461,14.8125,-26.0625,21.0625
1481269136918429,13.9375,-25.25,20.75
1481269136941411,12.1875,-23.75,20.5625
1481269136962489,9.625,-20.0625,20.125
1481269136984422,4.3125,-16.4375,18.9375
1481269137001425,0.6875,-12.9375,17.0625
1481269137022453,0.8125,-11.625,14.8125
1481269137038474,1.25,-12.375,13.625
1481269137061445,1.25,-14.75,13.5
1481269137082446,3.8125,-17.125,13.875
1481269137106448,7.75,-17.625,13.5
1481269137121450,10.375,-19.625,13.25
1481269137142526,14.5,-21.8125,13.9375
1481269137158589,17.625,-22.125,14.3125
1481269137181533,14.0625,-21.625,15.3125
1481269137202534,11.75,-22.5,16.5625
1481269137218577,15.5,-22.6875,16.125
1481269137240555,19.5625,-22.4375,15.375
1481269137263563,18.1875,-21.625,15.375
1481269137278580,13.375,-21.3125,15.875
1481269137300563,12.6875,-20.8125,15.3125
1481269137322657,12.625,-21.3125,14.5625
1481269137338716,13.75,-22.125,14.5
1481269137360662,16.625,-21.625,14.1875
1481269137382760,16.5625,-20.875,13.0625
1481269137397722,13.625,-20.0625,12.375
1481269137420660,12.5,-19.4375,12.5
1481269137444392,10.875,-19.1875,12.875
1481269137457905,10.25,-18.375,12.3125
1481269137480836,10.4375,-17.1875,11.3125
1481269137503842,10.25,-15.6875,10.6875
1481269137517840,9,-14.25,10.125
1481269137540853,8.0625,-13.9375,9.4375
1481269137563931,6.75,-12.75,8.5625
1481269137577968,3.3125,-12,8.0625
1481269137600933,2.0625,-10.875,7.5
1481269137623933,2.375,-9.0625,6.125
1481269137638580,-0.0625,-6.375,4.6875
1481269137661028,-5,-5.625,4.5625
1481269137684027,-4.125,-4.1875,3.75
1481269137698032,-2.4375,-2.125,2.4375
1481269137721093,-7,2.9375,0.75
1481269137744114,-10.8125,4.9375,-0.125
1481269137758059,-5.4375,5.0625,-2.0625
1481269137781091,1.5625,5.9375,-5.125
1481269137804061,2.875,4.9375,-6.375
1481269137819125,0.6875,2.8125,-5.3125
1481269137840654,-0.0625,1.625,-4.5
1481269137863170,-0.875,1.5,-3.4375
1481269137878172,-2.0625,2.125,-2.5625
1481269137900249,-0.75,2.625,-2.0625
1481269137924260,4.4375,2.625,-1.8125
1481269137945235,8,2.6875,-1.4375
1481269137961261,5.25,2.4375,0.25
1481269137984265,1.25,1.25,0.875
1481269138005278,3,1.375,-0.3125
1481269138021265,3.1875,1.9375,-1.8125
1481269138044276,-1.3125,0.9375,-1.3125
1481269138065256,-0.8125,0.5,-1.6875
1481269138080220,3,0.5625,-2.8125
1481269138103258,2.4375,0.8125,-3.125
1481269138125318,-0.5,0.75,-3
1481269138140739,-1.0625,0.5,-3.375
1481269138163771,0.1875,1.375,-4.0625
1481269138184852,-0.125,2.4375,-3.9375
1481269138200772,-2.9375,2.75,-2.5
1481269138222774,-4.5,2.625,-2.125
1481269138244790,-2,2.625,-1.8125
1481269138261331,0.8125,2.9375,-2.1875
1481269138283339,-0.6875,3.0625,-2.25
1481269138305405,-3.875,2.0625,-1.75
1481269138320303,-2.6875,1.8125,-1.8125
1481269138343317,-0.125,1.0625,-1.5
1481269138364326,1.75,0.375,-1.0625
1481269138380325,2.75,0.75,-1.5625
1481269138403327,-0.1875,1.8125,-2.6875
1481269138426327,-4.875,3.0625,-3.0625
1481269138441385,-5.6875,2.5,-2.125
1481269138463350,-1.6875,1.875,-2.5
1481269138493483,1.6875,1.1875,-3.1875
1481269138500354,1.875,-0.5625,-3
1481269138523352,0.4375,-2.3125,-2.1875
1481269138546368,0.5,-2.1875,-2.5
1481269138560442,-0.75,-1.8125,-3.3125
1481269138583379,-0.0625,-2,-3.75
1481269138606377,3,-1.75,-4.375
1481269138620380,2.3125,-2.0625,-4.8125
1481269138650293,-0.5,-1.8125,-4.8125
1481269138666160,-3.4375,-1.3125,-4.25
1481269138681229,-5.375,-0.5,-3.3125
1481269138694262,-4.5625,1.0625,-2.375
1481269138717171,-3.8125,1.75,-1.5
1481269138740345,-1.5,1.625,-0.8125
1481269138762599,2.0625,1.5,-0.5625
1481269138776609,0.1875,1.1875,0
1481269138799533,-2.1875,1.3125,0.8125
1481269138822612,-3.75,1.5625,0.9375
1481269138837111,-2.0625,2.625,0.625
1481269138859839,-1.1875,3.9375,0.4375
1481269138882865,-2.75,4.9375,-0.9375
1481269138896734,-3.6875,3.9375,-2.3125
1481269138927816,-2.375,2.3125,-2.375
1481269138942847,-4.1875,0,-1.875
1481269138956359,-5.25,-3.875,-1.125
1481269138979285,0.25,-5.25,-2.25
1481269139002360,2.375,-5.125,-3.1875
1481269139016282,-3.5,-4.625,-3.5
1481269139039377,-7.75,-3.875,-3.9375
1481269139062140,-6.25,-3.3125,-4.25
1481269139076207,0,-2.625,-3.875
1481269139099144,3.5625,-1.8125,-3.8125
1481269139122221,-0.6875,-0.9375,-3.3125
1481269139136734,-6.4375,-0.5625,-2.25
1481269139158767,-5.75,-1.1875,-1.4375
1481269139182872,0.25,-2.6875,-2.4375
1481269139196747,4.25,-3.375,-3.6875
1481269139218825,0.1875,-3.8125,-3
1481269139242815,-6.0625,-4.1875,-0.5
1481269139256854,-5.375,-3.625,1.3125
1481269139278792,2.3125,-1.4375,0.625
1481269139302830,5.8125,1.0625,0.3125
1481269139316860,2,3.25,0.8125
1481269139339384,-3.6875,4.25,1.1875
1481269139362431,-6.125,4.1875,1
1481269139376506,-2.1875,4.4375,0.4375
1481269139399430,-0.75,4.0625,0.0625
1481269139422430,-3.375,3.125,0.25
1481269139436971,-5.625,2,0.8125
1481269139459646,-4.875,0.8125,1.0625
1481269139482622,-2,0.0625,0.9375
1481269139496517,-0.6875,-0.6875,0.4375
1481269139519579,-3.4375,-0.8125,1.0625
1481269139542687,-5.1875,-0.75,1.6875
1481269139557260,-3.125,-0.8125,1.375
1481269139579135,-1.25,-1.1875,0.4375
1481269139603199,-1.4375,-1.6875,0.0625
1481269139616134,-3.375,-1.875,-0.25
1481269139639644,-5.5,-1.75,0.375
1481269139661840,-4.4375,-1.5,0.5
1481269139676859,-1.3125,-1.625,0.4375
1481269139698835,0.125,-1.0625,0.4375
1481269139721842,-2.5625,-0.4375,0.5
1481269139736777,-3.8125,0.25,1
1481269139759352,-2.5625,0.125,0.875
1481269139782354,1.6875,0.25,0.3125
1481269139796292,1.5625,0.25,0.1875
1481269139819288,-1.375,0.1875,0.9375
1481269139842374,-0.5,0.8125,0.4375
1481269139864381,0.875,1.1875,-0.4375
1481269139880380,1.125,1.8125,-0.5
1481269139902450,-0.1875,2.6875,-0.1875
1481269139916450,-1.875,2.75,0.1875
1481269139939396,-1.6875,2.25,-0.125
1481269139962310,1.9375,1.625,-1
1481269139976309,2.1875,1.3125,-1
1481269139999306,-0.5,1.4375,-0.3125
1481269140022311,-2.125,1,0.5
1481269140036816,-0.3125,0.4375,0.0625
1481269140058884,2.5625,0.1875,-0.75
1481269140082829,2.1875,-0.4375,-0.625
1481269140096830,-0.6875,-0.75,0.1875
1481269140118832,-1.8125,-0.375,0.1875
1481269140142342,-1.1875,-0.1875,-0.5
1481269140157855,-0.125,0.1875,-1.5
1481269140178894,-1.0625,-0.6875,-1.5
1481269140201934,-1.5625,-1.5625,-0.75
1481269140224892,-0.75,-1.5,-0.5
1481269140239428,-0.875,-1.3125,-0.1875
1481269140261852,-0.375,-0.75,0.5
1481269140276916,0.5625,-0.125,0.9375
1481269140298854,0.375,0.125,1.375
1481269140321851,1.375,0,1.375
1481269140336933,2.375,-0.25,0.75
1481269140358952,0.375,-0.5625,0.3125
1481269140381999,-2.75,-0.75,0.3125
1481269140404949,-1.75,-0.6875,-0.25
1481269140419047,1.125,-0.3125,-0.8125
1481269140441963,-0.625,0.1875,-0.6875
1481269140464977,-3.1875,0.0625,0.75
1481269140478975,-0.875,0.4375,1.125
1481269140502043,1.1875,0.8125,0.9375
1481269140525053,0.4375,1,0.875
1481269140539664,-1.1875,1.125,0.3125
1481269140561644,-2.4375,1.0625,-0.5
1481269140584727,-1.5,0.5,-0.5625
1481269140599670,0.125,0.375,-0.5
1481269140621727,-0.5,0.0625,-0.4375
1481269140645309,-0.875,0.0625,-0.6875
1481269140658871,-0.625,0.375,-0.8125
1481269140681822,-0.875,1.3125,-0.25
1481269140712792,-2.1875,1.5625,0.3125
1481269140718786,-1.9375,1.4375,0.3125
1481269140741954,-0.75,1.1875,-0.5625
1481269140765336,-1,0.0625,-0.375
1481269140779281,-0.625,-0.5,-0.625
1481269140801356,-0.8125,-0.8125,-0.25
1481269140825314,-0.625,-0.75,0.375
1481269140839377,0.4375,-0.125,0.5
1481269140861996,1.125,0.375,0.125
1481269140885063,0.75,0.8125,-0.5625
1481269140898988,-0.75,0.8125,-1.0625
1481269140921989,-2.5,0.4375,-1
1481269140945074,-1.5,0.5625,-1
1481269140959639,-0.1875,0.625,-1.3125
1481269140981659,-1.1875,-0.0625,-1.1875
1481269141004662,-0.75,-0.8125,-0.9375
1481269141019717,1,-0.75,-1.125
1481269141042240,0,-0.375,-1.25
1481269141064556,-2.1875,-0.375,-1.0625
1481269141079429,-1.375,0.0625,-1.8125
1481269141101446,-0.625,0.5,-2.1875
1481269141124510,-1.6875,0.6875,-1.4375
1481269141139584,-2.0625,1.125,-0.8125
1481269141161561,-2.75,1.75,-0.8125
1481269141184642,-2.8125,1.6875,-0.4375
1481269141199648,-0.8125,1.125,-0.25
1481269141221644,1,0.9375,-0.1875
