timestamp,roll,pitch,yaw
1481269123237811,-0.0692474,-1.50392,-2.06457
1481269123252811,-0.0692474,-1.50392,-2.06457
1481269123273813,-0.0643622,-1.50226,-2.06782
1481269123297815,-0.0564986,-1.50358,-2.07767
1481269123312814,-0.0538697,-1.50227,-2.08038
1481269123334327,-0.0543528,-1.50175,-2.08037
1481269123357839,-0.0561638,-1.5013,-2.07897
1481269123388842,-0.0563105,-1.50132,-2.07982
1481269123397846,-0.05862,-1.50007,-2.07765
1481269123418905,-0.0608399,-1.50005,-2.07647
1481269123432946,-0.0615598,-1.49785,-2.07478
1481269123454688,-0.0667742,-1.49833,-2.07115
1481269123478692,-0.065509,-1.49701,-2.07166
1481269123506776,-0.0615303,-1.497,-2.07566
1481269123519199,-0.0625337,-1.49641,-2.07422
1481269123536778,-0.0625337,-1.49641,-2.07422
1481269123551730,-0.0608902,-1.49679,-2.07549
1481269123573821,-0.0616055,-1.49786,-2.07575
1481269123596800,-0.0639791,-1.49702,-2.07218
1481269123611824,-0.0656168,-1.49743,-2.07014
1481269123634244,-0.0656168,-1.49743,-2.07014
1481269123665254,-0.06662,-1.49685,-2.06869
1481269123671254,-0.0661685,-1.49752,-2.06951
1481269123694321,-0.0632632,-1.49671,-2.0712
1481269123717266,-0.0633484,-1.49758,-2.0713
1481269123731765,-0.063169,-1.49778,-2.07129
1481269123754310,-0.0604316,-1.4979,-2.07392
1481269123785272,-0.0520373,-1.49768,-2.08252
1481269123791277,-0.0452667,-1.4961,-2.08883
1481269123814345,-0.0452667,-1.4961,-2.08883
1481269123836904,-0.0503648,-1.49539,-2.08344
1481269123851890,-0.0577028,-1.49497,-2.07551
1481269123873827,-0.0604127,-1.49441,-2.07141
1481269123896902,-0.0621917,-1.49452,-2.06954
1481269123919909,-0.0658879,-1.49492,-2.06739
1481269123933948,-0.0790653,-1.49405,-2.05503
1481269123957509,-0.0941547,-1.49235,-2.03866
1481269123979443,-0.108511,-1.49261,-2.02406
1481269123994565,-0.119755,-1.49155,-2.01094
1481269124017450,-0.124282,-1.49164,-2.00541
1481269124040062,-0.121757,-1.49176,-2.00783
1481269124062026,-0.13221,-1.49269,-1.99934
1481269124077031,-0.14159,-1.49314,-1.9885
1481269124100094,-0.140892,-1.49488,-1.98768
1481269124114050,-0.146133,-1.49553,-1.98176
1481269124137167,-0.164676,-1.4956,-1.96307
1481269124160156,-0.178157,-1.49623,-1.94911
1481269124174087,-0.191103,-1.4966,-1.9349
1481269124197091,-0.205659,-1.49682,-1.92005
1481269124220138,-0.225743,-1.49728,-1.90043
1481269124234154,-0.244698,-1.49806,-1.88279
1481269124257655,-0.262645,-1.49776,-1.86493
1481269124279656,-0.283198,-1.49805,-1.84528
1481269124293656,-0.297823,-1.49716,-1.82938
1481269124317592,-0.307534,-1.49687,-1.81896
1481269124341312,-0.314941,-1.49688,-1.81162
1481269124354374,-0.313232,-1.49682,-1.81341
1481269124377313,-0.316212,-1.49628,-1.81176
1481269124399313,-0.322335,-1.49503,-1.80646
1481269124414315,-0.321386,-1.49525,-1.80851
1481269124436916,-0.307011,-1.49433,-1.82163
1481269124459916,-0.292039,-1.49329,-1.83747
1481269124473832,-0.28492,-1.49315,-1.84888
1481269124496901,-0.284835,-1.49121,-1.85187
1481269124518919,-0.295187,-1.48976,-1.84413
1481269124534413,-0.30879,-1.48838,-1.83099
1481269124556950,-0.320699,-1.48825,-1.81925
1481269124580945,-0.330966,-1.4886,-1.80961
1481269124593944,-0.340403,-1.48893,-1.80073
1481269124617944,-0.345935,-1.49071,-1.79765
1481269124639050,-0.349267,-1.49166,-1.7955
1481269124654051,-0.3528,-1.4909,-1.79152
1481269124675959,-0.360683,-1.49147,-1.78656
1481269124698960,-0.365823,-1.49139,-1.78395
1481269124713961,-0.371782,-1.49002,-1.77844
1481269124736976,-0.375235,-1.48894,-1.77514
1481269124758977,-0.378505,-1.48801,-1.77184
1481269124773979,-0.380429,-1.48803,-1.77119
1481269124795980,-0.38459,-1.48743,-1.76785
1481269124818981,-0.388312,-1.48721,-1.76571
1481269124834491,-0.388499,-1.48622,-1.76437
1481269124856493,-0.38319,-1.48697,-1.76989
1481269124878995,-0.377403,-1.48725,-1.77529
1481269124893997,-0.371245,-1.48629,-1.78025
1481269124917000,-0.365378,-1.48753,-1.78821
1481269124939003,-0.364252,-1.48706,-1.79001
1481269124955505,-0.365636,-1.487,-1.78872
1481269124976507,-0.356549,-1.4868,-1.79681
1481269124999529,-0.34657,-1.48737,-1.80728
1481269125015512,-0.339825,-1.4874,-1.81531
1481269125036515,-0.337076,-1.48702,-1.81864
1481269125059018,-0.332916,-1.4867,-1.82331
1481269125075520,-0.33187,-1.48675,-1.82561
1481269125096523,-0.328126,-1.48593,-1.82931
1481269125119533,-0.322089,-1.48595,-1.83528
1481269125135529,-0.314947,-1.48577,-1.84273
1481269125156531,-0.312667,-1.48564,-1.84658
1481269125179033,-0.313094,-1.48491,-1.84733
1481269125195535,-0.312237,-1.48411,-1.84809
1481269125216538,-0.31128,-1.48414,-1.84889
1481269125239041,-0.310465,-1.4837,-1.84915
1481269125255543,-0.31128,-1.48414,-1.84889
1481269125276545,-0.307969,-1.48438,-1.85166
1481269125299049,-0.30541,-1.48341,-1.85311
1481269125315551,-0.302602,-1.48258,-1.85591
1481269125336554,-0.290016,-1.48228,-1.86882
1481269125359056,-0.27444,-1.4813,-1.88466
1481269125375558,-0.26357,-1.47959,-1.89596
1481269125396561,-0.260253,-1.47997,-1.90233
1481269125419064,-0.253805,-1.4782,-1.90789
1481269125435566,-0.247793,-1.4782,-1.91494
1481269125457068,-0.244513,-1.47623,-1.91655
1481269125479071,-0.237405,-1.47616,-1.92356
1481269125495574,-0.230481,-1.47641,-1.92992
1481269125516576,-0.221729,-1.47566,-1.93751
1481269125539085,-0.217251,-1.4766,-1.94401
1481269125561087,-0.216057,-1.47569,-1.94576
1481269125576088,-0.211572,-1.47565,-1.95037
1481269125599088,-0.201983,-1.47547,-1.95906
1481269125621597,-0.19187,-1.47563,-1.96894
1481269125636599,-0.18703,-1.47583,-1.97482
1481269125659106,-0.189583,-1.47597,-1.9733
1481269125681108,-0.184274,-1.47592,-1.97732
1481269125696109,-0.179326,-1.47727,-1.98223
1481269125719110,-0.179194,-1.47716,-1.98145
1481269125741125,-0.178444,-1.47839,-1.98248
1481269125756125,-0.177666,-1.47798,-1.98282
1481269125779129,-0.177273,-1.47867,-1.98459
1481269125801128,-0.178827,-1.47776,-1.9836
1481269125816130,-0.180301,-1.4777,-1.98218
1481269125839230,-0.17756,-1.47745,-1.98298
1481269125861232,-0.176674,-1.47824,-1.9838
1481269125878230,-0.177923,-1.47909,-1.98369
1481269125899235,-0.177875,-1.47976,-1.98405
1481269125921746,-0.179983,-1.48081,-1.98288
1481269125937882,-0.178062,-1.48176,-1.98453
1481269125958895,-0.173889,-1.48255,-1.98762
1481269125981975,-0.172064,-1.48315,-1.98877
1481269125997819,-0.172734,-1.48508,-1.98883
1481269126018821,-0.172534,-1.48515,-1.98791
1481269126042073,-0.173469,-1.48617,-1.98804
1481269126058007,-0.179981,-1.48618,-1.98158
1481269126079008,-0.176249,-1.48616,-1.98392
1481269126101009,-0.169395,-1.48613,-1.98953
1481269126118015,-0.162815,-1.48745,-1.99785
1481269126139178,-0.161718,-1.48681,-2.00021
1481269126161240,-0.16286,-1.48649,-2.00092
1481269126178161,-0.162075,-1.48556,-2.00073
1481269126199168,-0.150314,-1.4854,-2.01263
1481269126221243,-0.135343,-1.48448,-2.02921
1481269126238217,-0.12456,-1.48373,-2.04261
1481269126259298,-0.107357,-1.48223,-2.06076
1481269126281300,-0.08696,-1.47932,-2.08124
1481269126298225,-0.0670544,-1.47773,-2.10366
1481269126320223,-0.0415603,-1.47476,-2.13085
1481269126341325,-0.0157442,-1.47261,-2.16069
1481269126358353,0.0104869,-1.46852,-2.18931
1481269126379396,0.0434294,-1.46453,-2.2245
1481269126401331,0.0727784,-1.45912,-2.25787
1481269126418397,0.0915412,-1.45254,-2.28258
1481269126439472,0.113364,-1.44466,-2.30995
1481269126461488,0.133249,-1.43602,-2.33588
1481269126477564,0.150674,-1.42598,-2.35807
1481269126499527,0.175586,-1.41529,-2.38644
1481269126521470,0.202753,-1.40287,-2.41935
1481269126537542,0.215616,-1.39126,-2.4419
1481269126561788,0.225949,-1.37998,-2.45956
1481269126581856,0.244661,-1.36874,-2.48192
1481269126597798,0.267422,-1.35733,-2.50775
1481269126618857,0.283912,-1.34754,-2.52909
1481269126641314,0.297998,-1.33886,-2.54607
1481269126658392,0.315253,-1.33006,-2.5637
1481269126679387,0.331604,-1.32041,-2.58055
1481269126701347,0.343163,-1.31095,-2.59505
1481269126718324,0.350231,-1.3021,-2.60685
1481269126739031,0.357562,-1.29343,-2.61651
1481269126761952,0.368147,-1.28466,-2.62828
1481269126783916,0.376159,-1.27623,-2.6393
1481269126798949,0.38076,-1.26892,-2.64732
1481269126820993,0.385507,-1.26183,-2.65358
1481269126844087,0.396101,-1.25403,-2.66161
1481269126860161,0.408918,-1.24569,-2.67202
1481269126882113,0.417508,-1.23753,-2.68104
1481269126904090,0.423328,-1.23071,-2.68846
1481269126921156,0.427553,-1.22284,-2.69496
1481269126941613,0.431185,-1.21434,-2.70087
1481269126964636,0.435671,-1.20565,-2.70666
1481269126980540,0.443825,-1.19648,-2.71518
1481269127001538,0.4484,-1.18777,-2.72307
1481269127024590,0.448705,-1.1785,-2.72863
1481269127040590,0.450483,-1.16943,-2.73306
1481269127061591,0.455269,-1.1594,-2.73903
1481269127083592,0.460556,-1.1498,-2.74621
1481269127100593,0.463891,-1.14101,-2.75246
1481269127121605,0.46531,-1.13277,-2.75723
1481269127143742,0.468451,-1.12436,-2.76156
1481269127160665,0.47141,-1.1151,-2.7656
1481269127181688,0.474339,-1.10571,-2.77016
1481269127203746,0.476106,-1.09629,-2.77442
1481269127220675,0.476761,-1.08765,-2.77812
1481269127241276,0.476657,-1.0791,-2.78058
1481269127272201,0.478814,-1.06984,-2.78325
1481269127280269,0.481798,-1.06061,-2.78635
1481269127301210,0.482542,-1.05158,-2.78926
1481269127324297,0.479709,-1.0423,-2.7907
1481269127340950,0.475108,-1.03362,-2.79072
1481269127361986,0.471824,-1.02455,-2.79035
1481269127391946,0.470547,-1.01545,-2.79029
1481269127400924,0.468686,-1.00705,-2.79023
1481269127422003,0.465402,-0.998487,-2.78998
1481269127444016,0.459125,-0.989156,-2.78956
1481269127468015,0.448844,-0.979216,-2.7877
1481269127481117,0.437829,-0.969203,-2.78529
1481269127504020,0.42831,-0.959232,-2.78337
1481269127520031,0.420486,-0.949327,-2.78259
1481269127541688,0.411243,-0.939648,-2.78147
1481269127563690,0.401371,-0.9304,-2.78017
1481269127580615,0.393521,-0.921142,-2.7796
1481269127601693,0.386159,-0.911492,-2.77957
1481269127624128,0.37741,-0.902187,-2.7789
1481269127640477,0.369453,-0.892468,-2.77793
1481269127661553,0.363049,-0.882088,-2.77719
1481269127684549,0.355545,-0.87137,-2.77636
1481269127700479,0.346853,-0.860848,-2.77556
1481269127721506,0.338916,-0.849922,-2.77495
1481269127744563,0.332304,-0.838626,-2.77522
1481269127760612,0.325441,-0.826973,-2.77568
1481269127782626,0.318057,-0.815484,-2.77644
1481269127804568,0.311259,-0.804306,-2.77762
1481269127828076,0.304974,-0.79301,-2.7789
1481269127843624,0.297845,-0.782515,-2.77988
1481269127864593,0.291911,-0.772122,-2.78037
1481269127880596,0.288558,-0.761692,-2.78145
1481269127903654,0.284799,-0.751649,-2.78297
1481269127924097,0.278567,-0.741521,-2.78393
1481269127940608,0.271161,-0.731227,-2.78416
1481269127963673,0.265871,-0.720737,-2.78481
1481269127983610,0.260112,-0.710264,-2.78559
1481269128000611,0.251092,-0.70014,-2.78554
1481269128022648,0.24069,-0.690401,-2.78452
1481269128044218,0.231763,-0.680735,-2.78338
1481269128060215,0.224104,-0.67106,-2.78229
1481269128083212,0.215588,-0.661662,-2.78055
1481269128104283,0.208934,-0.652137,-2.77862
1481269128120216,0.205767,-0.642568,-2.77789
1481269128143324,0.201017,-0.632413,-2.77767
1481269128164389,0.191507,-0.622805,-2.77626
1481269128180325,0.182268,-0.613389,-2.77438
1481269128203358,0.175912,-0.604203,-2.77285
1481269128225866,0.171123,-0.594657,-2.77185
1481269128239833,0.167946,-0.585414,-2.77107
1481269128262845,0.165372,-0.576393,-2.77062
1481269128283846,0.161911,-0.566601,-2.77069
1481269128299845,0.155729,-0.556553,-2.77058
1481269128322849,0.148859,-0.546638,-2.7703
1481269128351946,0.142388,-0.536538,-2.77032
1481269128360948,0.136838,-0.526579,-2.77088
1481269128382951,0.132654,-0.516789,-2.77127
1481269128403971,0.130152,-0.507599,-2.77204
1481269128426960,0.126846,-0.498774,-2.7729
1481269128442966,0.12191,-0.48992,-2.77337
1481269128464045,0.116527,-0.480927,-2.77341
1481269128487037,0.11159,-0.471997,-2.77369
1481269128504004,0.106911,-0.462747,-2.77423
1481269128524568,0.100857,-0.453103,-2.77455
1481269128546654,0.0943108,-0.443391,-2.77483
1481269128562678,0.0901658,-0.433763,-2.77559
1481269128583549,0.0863449,-0.424283,-2.77677
1481269128606554,0.0821716,-0.415034,-2.77766
1481269128622680,0.0791001,-0.406,-2.77851
1481269128644038,0.0773572,-0.396861,-2.77956
1481269128666949,0.0749634,-0.387267,-2.78011
1481269128682946,0.0727533,-0.377746,-2.78034
1481269128705951,0.0702443,-0.368191,-2.78025
1481269128726473,0.0679306,-0.35894,-2.78008
1481269128743577,0.0664219,-0.349575,-2.78003
1481269128765509,0.0647958,-0.340086,-2.77987
1481269128786587,0.0632419,-0.331129,-2.7799
1481269128803645,0.0615099,-0.322606,-2.78008
1481269128825872,0.0589764,-0.31435,-2.78023
1481269128854631,0.0564848,-0.306236,-2.77996
1481269128863623,0.0553258,-0.298619,-2.77991
1481269128885555,0.0551896,-0.291797,-2.78009
1481269128906636,0.0541651,-0.285079,-2.78033
1481269128922624,0.0520861,-0.278554,-2.78044
1481269128945609,0.0510825,-0.272355,-2.78058
1481269128966615,0.0517149,-0.266432,-2.78114
1481269128982646,0.0499636,-0.260569,-2.78178
1481269129005613,0.0477629,-0.255019,-2.78228
1481269129026630,0.0476174,-0.249559,-2.78336
1481269129042882,0.0466511,-0.244571,-2.7846
1481269129065812,0.0454557,-0.24046,-2.78524
1481269129086824,0.0473304,-0.236537,-2.7857
1481269129102813,0.0505487,-0.232847,-2.78629
1481269129125948,0.051741,-0.229052,-2.78649
1481269129146255,0.0529318,-0.225161,-2.78652
1481269129163158,0.0557459,-0.221421,-2.78681
1481269129186230,0.0582977,-0.217741,-2.78711
1481269129206172,0.0600754,-0.214186,-2.78739
1481269129223162,0.0613999,-0.210427,-2.78777
1481269129245368,0.0620439,-0.206396,-2.78839
1481269129266410,0.0626263,-0.202843,-2.78927
1481269129283436,0.0615096,-0.198987,-2.79011
1481269129305369,0.0598083,-0.195539,-2.79081
1481269129334987,0.0595973,-0.192107,-2.7915
1481269129343579,0.0590838,-0.188981,-2.79224
1481269129365516,0.0587069,-0.185884,-2.79317
1481269129386595,0.0591016,-0.182786,-2.7944
1481269129403584,0.0576676,-0.179486,-2.79573
1481269129425520,0.0551226,-0.176752,-2.79688
1481269129455175,0.053008,-0.174457,-2.79815
1481269129463108,0.0519688,-0.172368,-2.79932
1481269129493109,0.052117,-0.170482,-2.80026
1481269129506209,0.051943,-0.1683,-2.80122
1481269129523111,0.0504175,-0.165892,-2.80193
1481269129545681,0.048955,-0.163646,-2.80221
1481269129566681,0.0474492,-0.161523,-2.8022
1481269129582683,0.0449396,-0.15947,-2.80222
1481269129612718,0.0439922,-0.157813,-2.80241
1481269129628277,0.0448404,-0.156574,-2.80265
1481269129643126,0.0442082,-0.155228,-2.80277
1481269129666189,0.0434911,-0.154358,-2.80284
1481269129688124,0.0438642,-0.153667,-2.80295
1481269129703126,0.0436133,-0.153002,-2.80307
1481269129725755,0.0417328,-0.152312,-2.80295
1481269129747927,0.0401931,-0.151797,-2.80279
1481269129769014,0.0398575,-0.151609,-2.80287
1481269129785019,0.0394421,-0.15128,-2.80323
1481269129806978,0.0377535,-0.150992,-2.80325
1481269129822032,0.0366106,-0.15105,-2.80304
1481269129845115,0.0366106,-0.15105,-2.80304
1481269129867003,0.0371169,-0.151013,-2.80308
1481269129891072,0.0382296,-0.150957,-2.80288
1481269129905076,0.0390741,-0.150994,-2.80261
1481269129927692,0.0387199,-0.150692,-2.80217
1481269129943615,0.0387199,-0.150692,-2.80217
1481269129964629,0.0396341,-0.150361,-2.802
1481269129987685,0.0404181,-0.150014,-2.80171
1481269130003618,0.0398455,-0.149557,-2.8013
1481269130024697,0.0390184,-0.149175,-2.80099
1481269130047285,0.0390388,-0.149054,-2.80098
1481269130063205,0.0396656,-0.148916,-2.80074
1481269130084209,0.0396656,-0.148916,-2.80074
1481269130107210,0.0397871,-0.148937,-2.80075
1481269130123214,0.0397871,-0.148937,-2.80075
1481269130144342,0.0398999,-0.148962,-2.80065
1481269130168398,0.0397581,-0.149062,-2.80064
1481269130189270,0.0393616,-0.149238,-2.80073
1481269130204336,0.0392574,-0.149209,-2.80095
1481269130227380,0.0394494,-0.148984,-2.80136
1481269130249954,0.0397106,-0.14914,-2.8019
1481269130264952,0.0394414,-0.149446,-2.80235
1481269130287062,0.0387019,-0.14956,-2.80269
1481269130309952,0.0389392,-0.149829,-2.80318
1481269130324951,0.04004,-0.150248,-2.80392
1481269130347056,0.0402663,-0.150634,-2.80452
1481269130369987,0.0395559,-0.150623,-2.80498
1481269130385057,0.0388769,-0.150374,-2.80532
1481269130406978,0.0383255,-0.150256,-2.80601
1481269130429996,0.0386311,-0.150392,-2.80713
1481269130444656,0.0393857,-0.15074,-2.80806
1481269130467709,0.038987,-0.151266,-2.80891
1481269130489580,0.0373263,-0.151721,-2.80931
1481269130504658,0.0371849,-0.151822,-2.8093
1481269130527683,0.0385511,-0.151922,-2.80953
1481269130549693,0.039442,-0.151823,-2.8096
1481269130564696,0.0395636,-0.151844,-2.80961
1481269130586771,0.0392604,-0.151305,-2.80934
1481269130609692,0.0386103,-0.150696,-2.80926
1481269130624775,0.0380421,-0.15035,-2.80919
1481269130647031,0.0380833,-0.15023,-2.80948
1481269130670013,0.0373515,-0.150221,-2.80965
1481269130685008,0.0365044,-0.150086,-2.80963
1481269130706951,0.0361198,-0.150146,-2.8096
1481269130729964,0.0361397,-0.150025,-2.8096
1481269130744474,0.0362268,-0.149772,-2.81023
1481269130767477,0.0359293,-0.149579,-2.81083
1481269130789477,0.0352751,-0.150062,-2.81148
1481269130806540,0.0351397,-0.150511,-2.81235
1481269130827620,0.0350741,-0.150714,-2.81361
1481269130849567,0.0340952,-0.151132,-2.81475
1481269130865569,0.0329491,-0.151664,-2.81554
1481269130886637,0.0315633,-0.151927,-2.81584
1481269130909639,0.0301881,-0.151834,-2.81549
1481269130926611,0.0302902,-0.151737,-2.81498
1481269130947434,0.0313129,-0.151537,-2.81494
1481269130969367,0.0313129,-0.151537,-2.81494
1481269130986369,0.0304829,-0.151398,-2.81516
1481269131007370,0.0288505,-0.151612,-2.81538
1481269131029956,0.0265833,-0.151736,-2.8152
1481269131045590,0.0255838,-0.151584,-2.81477
1481269131067586,0.0252119,-0.151411,-2.81439
1481269131089524,0.0253538,-0.15107,-2.81387
1481269131106593,0.0252558,-0.150698,-2.81339
1481269131127595,0.0241738,-0.150158,-2.81266
1481269131150227,0.0238045,-0.149869,-2.81205
1481269131166185,0.0245261,-0.149754,-2.81147
1481269131187189,0.0252654,-0.149634,-2.81112
1481269131210191,0.0258245,-0.149117,-2.8108
1481269131226188,0.0256348,-0.1486,-2.81043
1481269131247213,0.0243009,-0.14826,-2.81008
1481269131269284,0.0233029,-0.148106,-2.80966
1481269131286216,0.023042,-0.147947,-2.80911
1481269131307298,0.0233714,-0.14802,-2.80869
1481269131329747,0.023828,-0.148102,-2.80832
1481269131345930,0.0240731,-0.147903,-2.80782
1481269131366801,0.0241188,-0.14743,-2.80735
1481269131389815,0.0241098,-0.147309,-2.80694
1481269131406862,0.0241098,-0.147309,-2.80694
1481269131434820,0.0242111,-0.147451,-2.80696
1481269131449292,0.0240952,-0.147199,-2.80648
1481269131466290,0.0234706,-0.146978,-2.80591
1481269131487411,0.0229502,-0.146907,-2.80541
1481269131509314,0.0234388,-0.14675,-2.80493
1481269131526293,0.024413,-0.146677,-2.80448
1481269131554950,0.0244794,-0.146831,-2.80404
1481269131569952,0.0247855,-0.147018,-2.80355
1481269131585015,0.0254042,-0.14688,-2.8032
1481269131607013,0.0255256,-0.146901,-2.80321
1481269131629953,0.025546,-0.146779,-2.8032
1481269131645464,0.0255256,-0.146901,-2.80321
1481269131667466,0.025242,-0.147101,-2.80319
1481269131689492,0.0248856,-0.147784,-2.8033
1481269131705473,0.0247924,-0.148388,-2.80343
1481269131728986,0.0248615,-0.14877,-2.80356
1481269131749341,0.0248177,-0.149003,-2.80351
1481269131765406,0.0249587,-0.149652,-2.80354
1481269131788353,0.0244003,-0.150051,-2.80363
1481269131809422,0.0232489,-0.150112,-2.80331
1481269131832443,0.0226444,-0.149892,-2.80303
1481269131849168,0.0228988,-0.149816,-2.80293
1481269131870107,0.0235951,-0.150056,-2.80282
1481269131886172,0.0237165,-0.150077,-2.80283
1481269131909168,0.0233229,-0.150139,-2.80269
1481269131930288,0.0233229,-0.150139,-2.80269
1481269131954304,0.0228488,-0.149937,-2.80253
1481269131968296,0.0222444,-0.149717,-2.80225
1481269131990340,0.0223863,-0.149617,-2.80226
1481269132005239,0.0230255,-0.149481,-2.80219
1481269132028950,0.0239045,-0.149379,-2.80208
1481269132049484,0.0239045,-0.149379,-2.80208
1481269132065485,0.0239045,-0.149379,-2.80208
1481269132088482,0.0240259,-0.1494,-2.80209
1481269132111488,0.0241473,-0.149421,-2.8021
1481269132125485,0.0235726,-0.149201,-2.80222
1481269132148699,0.0230958,-0.149115,-2.80229
1481269132169703,0.0234776,-0.149171,-2.80255
1481269132192806,0.0244666,-0.149332,-2.80286
1481269132208705,0.024487,-0.149211,-2.80286
1481269132229823,0.0239721,-0.149252,-2.80271
1481269132253337,0.0238537,-0.14924,-2.80276
1481269132268402,0.0250341,-0.149054,-2.80319
1481269132289337,0.0251556,-0.149075,-2.8032
1481269132312415,0.024092,-0.148763,-2.80322
1481269132328984,0.0232043,-0.148869,-2.80321
1481269132349494,0.0232013,-0.14886,-2.80315
1481269132372496,0.0232131,-0.148866,-2.80332
1481269132388562,0.0232335,-0.148745,-2.80332
1481269132409575,0.0241038,-0.148769,-2.80339
1481269132432649,0.0242252,-0.14879,-2.8034
1481269132449203,0.023829,-0.148967,-2.80349
1481269132470184,0.0239708,-0.148867,-2.8035
1481269132492220,0.0239504,-0.148988,-2.8035
1481269132508140,0.0239708,-0.148867,-2.8035
1481269132529737,0.0239708,-0.148867,-2.8035
1481269132552296,0.0247078,-0.148864,-2.80338
1481269132568300,0.0247078,-0.148864,-2.80338
1481269132589306,0.0248293,-0.148885,-2.80339
1481269132612364,0.0248496,-0.148764,-2.80339
1481269132628297,0.0243756,-0.148562,-2.80323
1481269132649819,0.023991,-0.148621,-2.8032
1481269132671821,0.023991,-0.148621,-2.8032
1481269132687836,0.023991,-0.148621,-2.8032
1481269132711889,0.0241124,-0.148642,-2.80321
1481269132732341,0.0241124,-0.148642,-2.80321
1481269132748854,0.0248409,-0.148767,-2.80327
1481269132771886,0.0248409,-0.148767,-2.80327
1481269132791885,0.0249623,-0.148788,-2.80328
1481269132807925,0.0249623,-0.148788,-2.80328
1481269132831488,0.0259133,-0.149076,-2.80337
1481269132852076,0.0269254,-0.149,-2.80345
1481269132868002,0.0277667,-0.149149,-2.80341
1481269132891002,0.028602,-0.149404,-2.80354
1481269132912081,0.0295945,-0.149573,-2.80391
1481269132928001,0.0295945,-0.149573,-2.80391
1481269132950843,0.0296148,-0.149451,-2.80391
1481269132972845,0.0294501,-0.149788,-2.80413
1481269132988743,0.0294501,-0.149788,-2.80413
1481269133018744,0.0294703,-0.149667,-2.80413
1481269133032339,0.0294703,-0.149667,-2.80413
1481269133047944,0.0290945,-0.149722,-2.80422
1481269133070891,0.0291148,-0.149601,-2.80421
1481269133091940,0.0292362,-0.149622,-2.80422
1481269133107946,0.0292362,-0.149622,-2.80422
1481269133131688,0.0287389,-0.149656,-2.8043
1481269133152675,0.0288198,-0.14992,-2.80432
1481269133168642,0.0299421,-0.149982,-2.80452
1481269133191643,0.0315301,-0.150249,-2.80477
1481269133212708,0.0315301,-0.150249,-2.80477
1481269133228646,0.0315301,-0.150249,-2.80477
1481269133251136,0.0315301,-0.150249,-2.80477
1481269133272140,0.0320047,-0.15045,-2.80494
1481269133288139,0.0321262,-0.150471,-2.80495
1481269133311140,0.0321464,-0.150349,-2.80494
1481269133332726,0.0321262,-0.150471,-2.80495
1481269133348228,0.0327652,-0.150335,-2.80488
1481269133371231,0.0338004,-0.150024,-2.80472
1481269133392231,0.0338206,-0.149902,-2.80472
1481269133408233,0.0335363,-0.14998,-2.80441
1481269133431318,0.033678,-0.14988,-2.80442
1481269133452406,0.0347829,-0.149949,-2.80439
1481269133467407,0.034803,-0.149828,-2.80439
1481269133498407,0.0349855,-0.150234,-2.80442
1481269133512501,0.0349653,-0.150355,-2.80443
1481269133528476,0.0350868,-0.150376,-2.80444
1481269133550478,0.0349337,-0.150594,-2.80455
1481269133572487,0.0348008,-0.150691,-2.80466
1481269133588516,0.0348008,-0.150691,-2.80466
1481269133610478,0.0346074,-0.151152,-2.80477
1481269133634004,0.0347289,-0.151172,-2.80478
1481269133648606,0.0353454,-0.151273,-2.80495
1481269133670549,0.0362824,-0.151669,-2.8051
1481269133693613,0.0371856,-0.152203,-2.80508
1481269133708552,0.0372341,-0.152583,-2.80493
1481269133730549,0.0367582,-0.152619,-2.80529
1481269133753664,0.0361385,-0.152869,-2.80588
1481269133774671,0.0347493,-0.153238,-2.80641
1481269133790668,0.0332986,-0.153849,-2.80666
1481269133813668,0.0328511,-0.155013,-2.80661
1481269133835216,0.0339769,-0.156335,-2.80636
1481269133851255,0.0357766,-0.157384,-2.80621
1481269133874257,0.036607,-0.158277,-2.80603
1481269133895215,0.0368223,-0.159194,-2.80598
1481269133910234,0.0370524,-0.160093,-2.80609
1481269133934247,0.0366781,-0.160898,-2.80621
1481269133955284,0.0369418,-0.161681,-2.8065
1481269133970292,0.0375366,-0.162756,-2.80688
1481269133993287,0.0368298,-0.16401,-2.80687
1481269134015225,0.0361669,-0.165634,-2.80665
1481269134030737,0.037209,-0.167435,-2.80637
1481269134054249,0.0387282,-0.169438,-2.80625
1481269134074258,0.0393689,-0.171544,-2.80624
1481269134090250,0.0389188,-0.17345,-2.80616
1481269134114290,0.0377411,-0.175241,-2.80608
1481269134134772,0.0364923,-0.177401,-2.80589
1481269134150278,0.0362309,-0.180224,-2.80548
1481269134173343,0.0364953,-0.182774,-2.80487
1481269134195315,0.0374707,-0.185571,-2.80436
1481269134211288,0.0391691,-0.188614,-2.80404
1481269134233805,0.0403501,-0.191814,-2.8038
1481269134254380,0.0406594,-0.194862,-2.8033
1481269134270314,0.0406839,-0.19801,-2.8026
1481269134293357,0.0415097,-0.201658,-2.80207
1481269134314321,0.0433183,-0.205591,-2.8019
1481269134331337,0.0446503,-0.209435,-2.80179
1481269134353967,0.0455449,-0.21346,-2.80137
1481269134375058,0.0465982,-0.217907,-2.80076
1481269134390949,0.0480188,-0.222422,-2.80021
1481269134412948,0.0495129,-0.226567,-2.79977
1481269134434964,0.0517059,-0.230959,-2.79927
1481269134451080,0.0534775,-0.235769,-2.79898
1481269134473021,0.0545938,-0.24072,-2.79863
1481269134495116,0.0558485,-0.24569,-2.79843
1481269134510085,0.0576324,-0.251154,-2.79811
1481269134533032,0.059701,-0.257035,-2.79764
1481269134555196,0.0620547,-0.262836,-2.79734
1481269134571165,0.0641635,-0.268599,-2.79702
1481269134593102,0.0655365,-0.274251,-2.79666
1481269134616101,0.0667593,-0.279993,-2.79623
1481269134631135,0.0684613,-0.285954,-2.79591
1481269134653222,0.069993,-0.291498,-2.79566
1481269134676221,0.0716324,-0.297193,-2.79546
1481269134690222,0.0723607,-0.302869,-2.795
1481269134713219,0.0730019,-0.308395,-2.79464
1481269134736798,0.072698,-0.313489,-2.7942
1481269134750318,0.0728837,-0.318704,-2.7938
1481269134773318,0.0730023,-0.323527,-2.79337
1481269134796321,0.0730136,-0.328323,-2.79303
1481269134810351,0.0728983,-0.333216,-2.7928
1481269134833332,0.0718391,-0.33833,-2.79241
1481269134856366,0.0710546,-0.343391,-2.79138
1481269134870366,0.0714548,-0.348669,-2.79088
1481269134893374,0.0721025,-0.354211,-2.79062
1481269134916369,0.0724772,-0.359839,-2.79033
1481269134930371,0.0713876,-0.36536,-2.78952
1481269134953462,0.0695565,-0.370643,-2.78859
1481269134976426,0.0685435,-0.375947,-2.78736
1481269134990493,0.0692243,-0.38131,-2.78648
1481269135013489,0.0699025,-0.386679,-2.78561
1481269135036442,0.0697927,-0.392157,-2.78471
1481269135050480,0.0698897,-0.398038,-2.78394
1481269135073547,0.0709098,-0.404086,-2.78351
1481269135096484,0.0714259,-0.410283,-2.78323
1481269135117487,0.0720161,-0.416624,-2.78282
1481269135133534,0.0733449,-0.422893,-2.78222
1481269135156009,0.0763393,-0.429034,-2.78218
1481269135177129,0.0778219,-0.434621,-2.78234
1481269135193011,0.0766422,-0.440792,-2.78183
1481269135216016,0.0800414,-0.449286,-2.78079
1481269135237528,0.0897706,-0.459201,-2.78057
1481269135252750,0.099287,-0.468925,-2.78027
1481269135276699,0.106128,-0.478946,-2.77904
1481269135297685,0.112237,-0.489099,-2.77747
1481269135319626,0.118593,-0.498413,-2.77629
1481269135336198,0.123649,-0.507288,-2.77471
1481269135357240,0.127912,-0.516211,-2.77255
1481269135373142,0.132201,-0.524951,-2.7709
1481269135395276,0.13493,-0.533273,-2.76942
1481269135417147,0.1348,-0.541067,-2.76758
1481269135433161,0.132967,-0.548728,-2.76515
1481269135455962,0.132426,-0.556595,-2.76196
1481269135477073,0.134053,-0.564913,-2.75897
1481269135492963,0.137272,-0.573262,-2.75568
1481269135515969,0.139345,-0.581552,-2.75204
1481269135538981,0.140367,-0.590377,-2.74787
1481269135553473,0.14403,-0.599477,-2.74403
1481269135575441,0.149137,-0.608108,-2.74081
1481269135598440,0.151625,-0.61659,-2.73714
1481269135613475,0.152933,-0.625612,-2.73258
1481269135635953,0.156719,-0.635567,-2.72812
1481269135658533,0.162882,-0.645805,-2.72426
1481269135673533,0.170276,-0.655966,-2.72045
1481269135695465,0.176593,-0.665382,-2.71618
1481269135719470,0.182742,-0.675139,-2.71198
1481269135733555,0.18836,-0.684494,-2.70798
1481269135755488,0.194047,-0.693107,-2.70417
1481269135779469,0.198833,-0.700581,-2.70025
1481269135799500,0.202281,-0.707897,-2.69629
1481269135815425,0.205043,-0.715283,-2.69198
1481269135839468,0.208145,-0.722698,-2.68753
1481269135859446,0.211372,-0.730349,-2.68284
1481269135875429,0.213271,-0.738385,-2.67776
1481269135898412,0.214338,-0.746328,-2.67154
1481269135919450,0.217127,-0.754216,-2.66521
1481269135935950,0.220822,-0.761617,-2.65891
1481269135958465,0.223804,-0.769384,-2.65314
1481269135979511,0.225638,-0.776918,-2.64756
1481269135996463,0.226997,-0.784283,-2.64216
1481269136018528,0.227924,-0.79132,-2.63695
1481269136039956,0.229245,-0.798426,-2.63179
1481269136055428,0.233057,-0.805692,-2.62704
1481269136078425,0.237944,-0.812437,-2.62331
1481269136099493,0.240842,-0.819233,-2.61919
1481269136115426,0.241272,-0.825877,-2.61416
1481269136138950,0.242812,-0.832365,-2.60973
1481269136159454,0.245503,-0.839253,-2.60592
1481269136175466,0.247226,-0.846981,-2.60197
1481269136198493,0.249039,-0.8556,-2.59707
1481269136219461,0.253674,-0.864236,-2.59246
1481269136235980,0.258839,-0.872584,-2.58823
1481269136258598,0.263716,-0.880644,-2.58385
1481269136279533,0.26764,-0.888479,-2.57915
1481269136295531,0.270064,-0.896716,-2.57519
1481269136317635,0.271668,-0.904959,-2.57105
1481269136340047,0.275542,-0.912276,-2.56824
1481269136355252,0.279021,-0.919125,-2.56589
1481269136378259,0.281662,-0.925371,-2.56271
1481269136399258,0.285964,-0.931501,-2.56017
1481269136415259,0.290467,-0.937492,-2.55889
1481269136438268,0.293541,-0.943667,-2.55747
1481269136459846,0.295496,-0.94982,-2.55585
1481269136475780,0.297908,-0.956483,-2.55417
1481269136498845,0.300902,-0.963924,-2.5522
1481269136520846,0.304943,-0.972275,-2.55064
1481269136535794,0.308289,-0.981341,-2.54827
1481269136558443,0.312215,-0.990858,-2.54482
1481269136581412,0.317709,-0.999766,-2.54148
1481269136596419,0.323372,-1.00856,-2.53836
1481269136618479,0.328281,-1.01758,-2.53472
1481269136641508,0.333036,-1.02648,-2.53098
1481269136655841,0.337023,-1.03509,-2.52681
1481269136677907,0.339633,-1.04399,-2.52276
1481269136700858,0.340628,-1.05372,-2.51724
1481269136715843,0.344059,-1.06395,-2.51157
1481269136738359,0.349485,-1.0745,-2.50736
1481269136761369,0.351607,-1.08531,-2.50183
1481269136782374,0.351347,-1.09641,-2.4956
1481269136798372,0.349102,-1.1073,-2.48844
1481269136827372,0.34627,-1.11911,-2.48131
1481269136842386,0.343421,-1.13163,-2.47352
1481269136858395,0.341229,-1.14405,-2.46532
1481269136881392,0.3385,-1.15592,-2.45643
1481269136902461,0.33446,-1.16722,-2.44643
1481269136918429,0.329871,-1.17821,-2.43615
1481269136941411,0.324648,-1.18823,-2.4257
1481269136962489,0.318468,-1.19692,-2.41521
1481269136984422,0.3095,-1.20421,-2.40388
1481269137001425,0.299117,-1.20985,-2.3924
1481269137022453,0.289344,-1.21467,-2.38163
1481269137038474,0.280559,-1.21968,-2.37181
1481269137061445,0.272323,-1.22571,-2.36244
1481269137082446,0.263358,-1.23256,-2.3518
1481269137106448,0.256447,-1.2395,-2.34162
1481269137121450,0.250243,-1.24748,-2.33143
1481269137142526,0.244995,-1.25644,-2.32082
1481269137158589,0.241519,-1.26543,-2.3107
1481269137181533,0.235874,-1.27452,-2.29967
1481269137202534,0.226488,-1.28347,-2.28551
1481269137218577,0.2169,-1.29263,-2.27
1481269137240555,0.210562,-1.30193,-2.25642
1481269137263563,0.204162,-1.31064,-2.24306
1481269137278580,0.194389,-1.31951,-2.2282
1481269137300563,0.183765,-1.32774,-2.21253
1481269137322657,0.173216,-1.33609,-2.1971
1481269137338716,0.160932,-1.34473,-2.17966
1481269137360662,0.14967,-1.35269,-2.16195
1481269137382760,0.140031,-1.36088,-2.14632
1481269137397722,0.128453,-1.36833,-2.12934
1481269137420660,0.114938,-1.3757,-2.11116
1481269137444392,0.0985076,-1.38314,-2.09069
1481269137457905,0.0802438,-1.38994,-2.06854
1481269137480836,0.0629979,-1.39661,-2.04746
1481269137503842,0.0461601,-1.40236,-2.0267
1481269137517840,0.028653,-1.40729,-2.00571
1481269137540853,0.010676,-1.41206,-1.98445
1481269137563931,-0.00489615,-1.41669,-1.96614
1481269137577968,-0.0220939,-1.42109,-1.94787
1481269137600933,-0.0408293,-1.42487,-1.92814
1481269137623933,-0.0567238,-1.42778,-1.91103
1481269137638580,-0.0691183,-1.43053,-1.89875
1481269137661028,-0.084188,-1.43199,-1.88487
1481269137684027,-0.0974674,-1.43358,-1.87349
1481269137698032,-0.0972909,-1.43327,-1.87399
1481269137721093,-0.0935261,-1.43146,-1.88001
1481269137744114,-0.0933349,-1.42903,-1.88392
1481269137758059,-0.0917094,-1.42661,-1.8878
1481269137781091,-0.0789657,-1.42423,-1.90052
1481269137804061,-0.0628479,-1.42193,-1.91518
1481269137819125,-0.052566,-1.42077,-1.92517
1481269137840654,-0.0450726,-1.4213,-1.93359
1481269137863170,-0.0406375,-1.42071,-1.93784
1481269137878172,-0.0395414,-1.42083,-1.93995
1481269137900249,-0.0414263,-1.42002,-1.93812
1481269137924260,-0.041582,-1.4199,-1.93681
1481269137945235,-0.0356691,-1.4193,-1.93975
1481269137961261,-0.0327512,-1.41903,-1.94095
1481269137984265,-0.0352651,-1.41971,-1.93852
1481269138005278,-0.035333,-1.41944,-1.9373
1481269138021265,-0.0276091,-1.41948,-1.94411
1481269138044276,-0.0238844,-1.41928,-1.94825
1481269138065256,-0.0218336,-1.41888,-1.95048
1481269138080220,-0.0147016,-1.41921,-1.95685
1481269138103258,-0.00528449,-1.4184,-1.96503
1481269138125318,0.000271706,-1.4187,-1.97115
1481269138140739,0.00509202,-1.41875,-1.97665
1481269138163771,0.011296,-1.41802,-1.98253
1481269138184852,0.0176506,-1.41751,-1.98886
1481269138200772,0.0202882,-1.41708,-1.99278
1481269138222774,0.020924,-1.41647,-1.99512
1481269138244790,0.0197731,-1.41594,-1.99502
1481269138261331,0.0226569,-1.41443,-1.9971
1481269138283339,0.0274358,-1.41407,-2.00253
1481269138305405,0.029211,-1.41342,-2.00575
1481269138320303,0.0299217,-1.41261,-2.00725
1481269138343317,0.0304978,-1.41254,-2.00789
1481269138364326,0.0333079,-1.41213,-2.00994
1481269138380325,0.0383834,-1.41192,-2.01422
1481269138403327,0.0465595,-1.41191,-2.02279
1481269138426327,0.0528334,-1.411,-2.03063
1481269138441385,0.0541542,-1.41,-2.03395
1481269138463350,0.0575083,-1.40931,-2.03814
1481269138493483,0.0640938,-1.40849,-2.04391
1481269138500354,0.0717091,-1.40909,-2.05115
1481269138523352,0.0762694,-1.40988,-2.05547
1481269138546368,0.0824687,-1.41084,-2.06171
1481269138560442,0.0882473,-1.41161,-2.06798
1481269138583379,0.0946078,-1.41219,-2.07425
1481269138606377,0.104583,-1.41275,-2.08355
1481269138620380,0.11613,-1.41289,-2.09433
1481269138650293,0.125148,-1.41397,-2.10399
1481269138666160,0.131861,-1.414,-2.11163
1481269138681229,0.134614,-1.41435,-2.1165
1481269138694262,0.135225,-1.4139,-2.11876
1481269138717171,0.132739,-1.41352,-2.11788
1481269138740345,0.129392,-1.41234,-2.11465
1481269138762599,0.129398,-1.4115,-2.11388
1481269138776609,0.129457,-1.41151,-2.11429
1481269138799533,0.126639,-1.41096,-2.1122
1481269138822612,0.121531,-1.41019,-2.1083
1481269138837111,0.118087,-1.40932,-2.10548
1481269138859839,0.115203,-1.40748,-2.10287
1481269138882865,0.11354,-1.40605,-2.10226
1481269138896734,0.114446,-1.40467,-2.10417
1481269138927816,0.117804,-1.40479,-2.10884
1481269138942847,0.120506,-1.40438,-2.1129
1481269138956359,0.119921,-1.40589,-2.11434
1481269138979285,0.124935,-1.40726,-2.11905
1481269139002360,0.13653,-1.40888,-2.1298
1481269139016282,0.148239,-1.41063,-2.14306
1481269139039377,0.155773,-1.41132,-2.15331
1481269139062140,0.161851,-1.41191,-2.16182
1481269139076207,0.168377,-1.41187,-2.1684
1481269139099144,0.179564,-1.41221,-2.17859
1481269139122221,0.190393,-1.41182,-2.18941
1481269139136734,0.194991,-1.41226,-2.19654
1481269139158767,0.192901,-1.41186,-2.19626
1481269139182872,0.19505,-1.41264,-2.19887
1481269139196747,0.204911,-1.41314,-2.20697
1481269139218825,0.213714,-1.41469,-2.21605
1481269139242815,0.213058,-1.41591,-2.21745
1481269139256854,0.203935,-1.41708,-2.21039
1481269139278792,0.198077,-1.41697,-2.20355
1481269139302830,0.198113,-1.41731,-2.20181
1481269139316860,0.196699,-1.41659,-2.19979
1481269139339384,0.192315,-1.41513,-2.19649
1481269139362431,0.186345,-1.41344,-2.19222
1481269139376506,0.182358,-1.41315,-2.18947
1481269139399430,0.181107,-1.41148,-2.18808
1481269139422430,0.180689,-1.41154,-2.18905
1481269139436971,0.177367,-1.41093,-2.1874
1481269139459646,0.173692,-1.41095,-2.18525
1481269139482622,0.170543,-1.41114,-2.18272
1481269139496517,0.17138,-1.41167,-2.18385
1481269139519579,0.170242,-1.4119,-2.18371
1481269139542687,0.16436,-1.41219,-2.17955
1481269139557260,0.161223,-1.41256,-2.17764
1481269139579135,0.161113,-1.41251,-2.17763
1481269139603199,0.161108,-1.41339,-2.17843
1481269139616134,0.163417,-1.41366,-2.18174
1481269139639644,0.161061,-1.41383,-2.18125
1481269139661840,0.156462,-1.41426,-2.17829
1481269139676859,0.153136,-1.41462,-2.17546
1481269139698835,0.152123,-1.41459,-2.17447
1481269139721842,0.150343,-1.4142,-2.17344
1481269139736777,0.145137,-1.41399,-2.16962
1481269139759352,0.140546,-1.413,-2.16551
1481269139782354,0.13957,-1.41315,-2.16433
1481269139796292,0.141777,-1.41291,-2.16591
1481269139819288,0.138983,-1.41231,-2.16328
1481269139842374,0.138983,-1.41231,-2.16328
1481269139864381,0.140001,-1.41199,-2.16412
1481269139880380,0.141234,-1.41137,-2.16504
1481269139902450,0.141129,-1.41011,-2.16481
1481269139916450,0.139309,-1.40901,-2.16354
1481269139939396,0.135497,-1.40871,-2.16072
1481269139962310,0.135907,-1.40791,-2.16023
1481269139976309,0.138282,-1.40737,-2.16184
1481269139999306,0.139211,-1.40793,-2.16341
1481269140022311,0.13517,-1.40704,-2.15946
1481269140036816,0.134985,-1.40753,-2.15961
1481269140058884,0.136579,-1.40753,-2.16039
1481269140082829,0.139657,-1.40767,-2.16255
1481269140096830,0.139657,-1.40767,-2.16255
1481269140118832,0.138472,-1.40794,-2.16195
1481269140142342,0.139033,-1.40824,-2.16305
1481269140157855,0.141414,-1.40823,-2.16544
1481269140178894,0.143538,-1.40781,-2.16762
1481269140201934,0.143185,-1.4088,-2.16835
1481269140224892,0.141784,-1.40938,-2.16726
1481269140239428,0.139362,-1.40973,-2.16498
1481269140261852,0.138797,-1.40943,-2.1643
1481269140276916,0.138797,-1.40943,-2.1643
1481269140298854,0.135568,-1.40997,-2.16134
1481269140321851,0.131925,-1.40953,-2.15689
1481269140336933,0.13165,-1.40964,-2.15572
1481269140358952,0.132212,-1.40994,-2.15639
1481269140381999,0.130261,-1.40987,-2.15534
1481269140404949,0.128117,-1.4103,-2.15401
1481269140419047,0.128488,-1.40984,-2.15362
1481269140441963,0.128709,-1.41007,-2.15404
1481269140464977,0.125266,-1.40986,-2.15161
1481269140478975,0.120744,-1.40975,-2.14755
1481269140502043,0.117758,-1.40926,-2.14416
1481269140525053,0.115908,-1.40884,-2.14187
1481269140539664,0.115922,-1.40884,-2.14266
1481269140561644,0.116877,-1.40816,-2.14423
1481269140584727,0.117242,-1.40771,-2.14502
1481269140599670,0.117242,-1.40771,-2.14502
1481269140621727,0.117242,-1.40771,-2.14502
1481269140645309,0.117242,-1.40771,-2.14502
1481269140658871,0.116833,-1.40797,-2.14475
1481269140681822,0.116781,-1.40707,-2.14473
1481269140712792,0.11536,-1.40641,-2.14392
1481269140718786,0.113621,-1.40638,-2.14301
1481269140741954,0.113714,-1.40604,-2.14339
1481269140765336,0.11343,-1.40615,-2.14339
1481269140779281,0.11343,-1.40615,-2.14339
1481269140801356,0.113173,-1.40574,-2.14273
1481269140825314,0.113173,-1.40574,-2.14273
1481269140839377,0.113025,-1.40641,-2.14312
1481269140861996,0.112904,-1.40584,-2.14232
1481269140885063,0.112904,-1.40584,-2.14232
1481269140898988,0.115287,-1.40532,-2.14479
1481269140921989,0.11696,-1.40517,-2.14741
1481269140945074,0.117567,-1.40514,-2.14885
1481269140959639,0.119811,-1.40477,-2.15104
1481269140981659,0.121925,-1.40455,-2.15339
1481269141004662,0.121384,-1.40426,-2.15274
1481269141019717,0.124686,-1.40498,-2.15612
1481269141042240,0.129014,-1.40542,-2.16046
1481269141064556,0.129963,-1.40495,-2.16191
1481269141079429,0.131494,-1.40495,-2.16424
1481269141101446,0.136151,-1.40442,-2.16901
1481269141124510,0.137846,-1.40394,-2.17118
1481269141139584,0.138119,-1.40402,-2.17255
1481269141161561,0.137182,-1.40316,-2.17246
1481269141184642,0.134807,-1.40215,-2.17104
1481269141199648,0.132647,-1.40169,-2.16931
1481269141221644,0.132007,-1.40102,-2.16809
